-0.0333
-0.035
-0.035
-0.03
-0.03
-0.0333
-0.0317
-0.0333
-0.0333
-0.0367
-0.035
-0.0417
-0.0417
-0.0383
-0.0417
-0.0467
-0.0467
-0.0517
-0.0533
-0.0583
-0.0583
-0.0633
-0.0633
-0.06
-0.0633
-0.06
-0.06
-0.0583
-0.0583
-0.0567
-0.0583
-0.0567
-0.06
-0.055
-0.055
-0.05
-0.0517
-0.0417
-0.0417
-0.0367
-0.0367
-0.0317
-0.0317
-0.025
-0.0267
-0.0183
-0.0167
-0.0083
-0.0083
0.005
0.005
0.0133
0.015
0.01
0.0083
-0.0183
-0.02
-0.045
-0.045
-0.0567
-0.0567
-0.055
-0.0567
-0.05
-0.05
-0.045
-0.0467
-0.0483
-0.0483
-0.0533
-0.0533
-0.06
-0.06
-0.0783
-0.0783
-0.1083
-0.11
-0.0883
-0.085
0.01
0.0133
0.0367
0.0317
0.0033
0.005
0.0017
0.0017
-0.005
-0.0067
-0.0017
-0.0017
0.0067
0.0067
0.035
0.0367
0.07
0.0717
0.0017
-0.0283
0.265
0.3217
0.0333
0.3017
-0.1817
-0.1967
-0.3783
-0.3817
-0.2767
-0.27
-0.0833
-0.0767
0.0267
0.03
0.0617
0.06
0.02
0.0183
-0.0183
-0.02
-0.0317
-0.03
-0.02
-0.0183
-0.0033
-0.0033
0.0067
0.0067
0.015
0.0133
0.0217
0.0217
0.0333
0.0333
0.0517
0.0517
0.0833
0.085
0.1383
0.14
0.195
0.2317
0.13
0.1133
-0.0483
-0.0183
0.18
0.145
0.105
0.1067
0.115
0.1083
0.065
0.0633
0.0017
0
-0.0467
-0.0483
-0.0783
-0.08
-0.0983
-0.0983
-0.105
-0.1033
-0.105
-0.105
-0.0983
-0.1
-0.0917
-0.0933
-0.0817
-0.08
-0.0717
-0.0717
-0.06
-0.0583
-0.05
-0.05
-0.0417
-0.0417
-0.0367
-0.0383
-0.0333
-0.0333
-0.0283
-0.0333
-0.03
-0.03
-0.025
-0.025
-0.0167
-0.0167
-0.0083
-0.0083
0.0017
0.0017
0.0033
0.005
0.0017
0.0033
0.0017
0
0.005
0.0033
0.0067
0.0033
0.0067
0.005
0.0017
0.0033
0
0
-0.0033
-0.005
-0.0033
-0.0067
-0.0033
-0.0033
-0.0067
-0.0067
-0.0083
-0.0067
-0.0083
-0.0083
-0.01
-0.0083
-0.005
-0.005
0.0017
0.0017
0.0083
0.0083
0.0133
0.0133
0.02
0.02
0.0233
0.0233
0.03
0.0283
0.04
0.04
0.05
0.0483
0.0567
0.0567
0.0533
0.055
0.0483
0.0483
0.0367
0.0367
0.0283
0.0283
0.025
0.0283
0.03
0.0283
0.015
0.0133
-0.015
-0.015
-0.0333
-0.0317
-0.0333
-0.0333
-0.03
-0.0333
-0.0283
-0.0317
-0.025
-0.0267
-0.0217
-0.0233
-0.0083
-0.0083
0.005
0.0067
0.0217
0.0217
0.015
0.02
0.0033
0.0017
-0.0667
-0.0667
0.0367
0.0383
-0.0717
-0.0483
0.0183
0.02
0.0417
0.0417
0.05
0.0517
0.0567
0.055
0.0433
0.0417
0.0283
0.0267
0.015
0.015
0.005
0.0067
0.0033
0.0033
0.0067
0.0067
0.0117
0.01
0.0017
0.0017
-0.01
-0.01
-0.03
-0.03
-0.0433
-0.0433
-0.04
-0.04
-0.0283
-0.0267
-0.0133
-0.0133
0.0017
0.0033
0.02
0.02
0.0367
0.0367
0.04
0.0367
0.0317
0.0317
0.0233
0.0233
0.0167
0.0167
0.0133
0.0133
0.01
0.0117
0.0083
0.0083
0.01
0.0083
0.0167
0.015
0.02
0.02
0.025
0.025
0.0267
0.0283
0.0317
0.03
0.0317
0.0283
0.0333
0.0317
0.0367
0.0367
0.0417
0.0417
0.045
0.0433
0.0383
0.04
0.0317
0.0317
0.02
0.02
0.0067
0.0067
-0.0033
-0.0033
-0.01
-0.0083
-0.005
-0.0083
-0.0033
-0.005
-0.0017
-0.0067
-0.005
-0.0067
-0.0083
-0.0083
-0.01
-0.01
-0.0083
-0.0083
-0.005
-0.005
-0.0067
-0.0067
-0.0033
-0.005
-0.01
-0.0083
-0.0117
-0.0133
-0.03
-0.03
-0.0367
-0.0367
-0.035
-0.0333
-0.03
-0.03
-0.0217
-0.0217
-0.0167
-0.0167
-0.0133
-0.0117
0.0017
0.0017
0.0083
0.0067
-0.0017
-0.0017
-0.0583
-0.0617
-0.1467
-0.15
-0.1183
-0.1133
-0.005
0
0.08
0.0817
0.09
0.08
0.0467
0.0467
0.03
0.03
0.0233
0.025
0.0217
0.02
0.0283
0.0283
0.0333
0.0317
0.0367
0.0367
0.055
0.07
0.0517
0.0017
0.1533
0.2633
-0.025
0.2183
-0.195
-0.2117
-0.2667
-0.265
-0.1167
-0.1133
-0.065
-0.0633
-0.0483
-0.0483
-0.0383
-0.0383
-0.045
-0.045
-0.04
-0.045
-0.0467
-0.045
-0.0383
-0.0383
-0.0283
-0.03
-0.0233
-0.0233
-0.02
-0.02
-0.0167
-0.0183
-0.0217
-0.0217
-0.0183
-0.0183
-0.01
-0.0083
-0.0033
-0.0017
0.0083
0.0083
0.0217
0.0217
0.0267
0.0267
0.0133
0.0133
-0.0167
-0.0183
-0.0483
-0.0483
-0.065
-0.0667
-0.0617
-0.06
-0.0467
-0.0467
-0.04
-0.04
-0.0383
-0.04
-0.045
-0.0433
-0.0467
-0.0467
-0.0433
-0.0417
-0.0367
-0.0367
-0.03
-0.03
-0.0267
-0.0267
-0.02
-0.02
-0.015
-0.0167
-0.0117
-0.0117
-0.0167
-0.0167
-0.0183
-0.0167
-0.0267
-0.0267
-0.0333
-0.0333
-0.04
-0.04
-0.045
-0.0433
-0.0467
-0.0467
-0.05
-0.05
-0.0467
-0.0467
-0.0383
-0.0383
-0.0283
-0.0283
-0.0233
-0.0233
-0.0267
-0.0233
-0.0217
-0.0233
-0.02
-0.0217
-0.0183
-0.0183
-0.0167
-0.0183
-0.0217
-0.0217
-0.0283
-0.025
-0.015
-0.0133
-0.0067
-0.005
0
0
0.0067
0.0067
0.0183
0.0167
0.0317
0.0333
0.0517
0.0533
0.0817
0.0833
0.1283
0.1317
0.175
0.195
0.0633
0.05
-0.04
0.0367
0.0833
0.08
0.1233
0.125
0.1417
0.135
0.0833
0.08
0.005
0.0033
-0.0517
-0.0517
-0.08
-0.08
-0.1
-0.1
-0.1067
-0.1067
-0.11
-0.1083
-0.1017
-0.1017
-0.095
-0.095
-0.0833
-0.0833
-0.0733
-0.0733
-0.0583
-0.0567
-0.0333
-0.0317
-0.0167
-0.0167
-0.025
-0.025
-0.0333
-0.0333
-0.0383
-0.0383
-0.0433
-0.0433
-0.0383
-0.0383
-0.0383
-0.035
-0.0367
-0.03
-0.03
-0.0233
-0.025
-0.02
-0.02
-0.015
-0.015
-0.0083
-0.01
-0.005
-0.0067
-0.0033
-0.005
-0.0033
-0.005
-0.01
-0.0067
-0.01
-0.0067
-0.0017
-0.0033
0.0017
0.0017
0
0.0017
0.0083
0.0083
0.015
0.015
0.02
0.02
0.03
0.03
0.0383
0.0383
0.0483
0.05
0.065
0.0667
0.1217
0.1483
-0.035
-0.0567
-0.04
-0.0383
-0.0083
-0.0067
0.0067
0.0067
0.0117
0.01
0.0117
0.0117
0.0067
0.0067
0.01
0.01
0.0167
0.0183
0.0217
0.0217
0.0183
0.0233
0.0267
0.025
0.0283
0.0267
0.03
0.03
0.0383
0.0383
0.05
0.05
0.0583
0.06
0.0633
0.0617
0.0567
0.0583
0.0533
0.055
0.0467
0.0467
0.0433
0.045
0.0367
0.0367
0.0317
0.03
0.0217
0.0217
0.0283
0.0283
0.0317
0.03
0.0333
0.03
0.0333
0.0333
0.0383
0.0383
0.0467
0.0467
0.0533
0.055
0.0633
0.065
0.0783
0.08
0.075
0.0767
0.085
0.085
0.075
0.0733
0.055
0.055
0.0317
0.03
0.0167
0.015
-0.0633
-0.0783
-0.0567
-0.055
-0.03
-0.03
0.0133
0.015
0.08
0.08
0.0967
0.0983
0.08
0.0783
0.045
0.0433
0.025
0.0233
0.0167
0.0167
0.0133
0.015
0
-0.0017
-0.0183
-0.0233
-0.0017
0.0017
0.0967
0.1
0.15
0.1517
0.1683
0.1667
0.0967
0.3517
0.0717
0.0667
0.335
0.1367
-0.1483
-0.205
-0.1483
-0.145
-0.07
-0.0667
-0.03
-0.0283
-0.0133
-0.0133
-0.0017
-0.0017
0.0067
0.0067
0.0033
0.005
-0.005
-0.0067
-0.015
-0.015
-0.0083
-0.01
-0.005
-0.005
-0.0033
-0.0033
-0.0067
-0.0067
-0.0183
-0.02
-0.045
-0.045
-0.0617
-0.0617
-0.0683
-0.0683
-0.0717
-0.07
-0.0733
-0.0733
-0.0867
-0.0867
-0.095
-0.095
-0.1017
-0.1017
-0.1067
-0.1067
-0.11
-0.1083
-0.1117
-0.1133
-0.11
-0.1083
-0.0983
-0.0967
-0.085
-0.085
-0.0917
-0.0917
-0.1033
-0.1033
-0.1233
-0.125
-0.1383
-0.1383
-0.145
-0.1433
-0.15
-0.15
-0.1667
-0.1683
-0.1983
-0.2
-0.2333
-0.2333
-0.2583
-0.26
-0.2717
-0.2733
-0.27
-0.2717
-0.2667
-0.27
-0.2667
-0.2667
-0.2633
-0.265
-0.2683
-0.2683
-0.2617
-0.2617
-0.255
-0.2567
-0.2467
-0.2483
-0.2433
-0.2433
-0.235
-0.235
-0.225
-0.225
-0.2083
-0.2083
-0.195
-0.1933
-0.17
-0.1683
-0.1367
-0.1367
-0.0983
-0.0983
-0.0533
-0.0517
-0.0133
-0.0133
0.0067
0.0067
0.0133
0.0133
0.0217
0.0183
0.0233
0.0233
0.0283
0.0283
0.035
0.0333
0.0417
0.0417
0.0483
0.0483
0.0533
0.0533
0.0583
0.0583
0.0683
0.0683
0.0733
0.0733
0.0783
0.08
0.0867
0.0867
0.0917
0.0917
0.0933
0.0917
0.0933
0.0917
0.0967
0.0967
0.105
0.105
0.115
0.1133
0.1283
0.1283
0.1417
0.1417
0.1517
0.1517
0.1583
0.1583
0.1633
0.165
0.16
0.1583
0.165
0.165
0.17
0.17
0.175
0.1767
0.185
0.185
0.19
0.1883
0.1967
0.1967
0.215
0.2167
0.2367
0.2383
0.2717
0.2733
0.34
0.34
0.385
0.3667
0.0867
0.0767
0.1167
0.09
0.17
0.1
0.175
0.255
0.2567
0.2667
0.2633
0.225
0.2217
0.1783
0.1783
0.1517
0.1517
0.1417
0.14
0.1333
0.135
0.13
0.13
0.1267
0.1267
0.1217
0.1233
0.12
0.12
0.1217
0.1233
0.12
0.1217
0.1167
0.1183
0.12
0.1183
0.12
0.12
0.1167
0.1167
0.1117
0.1117
0.1083
0.1083
0.1033
0.105
0.1017
0.105
0.1133
0.1133
0.1233
0.1233
0.1317
0.1317
0.1333
0.1333
0.1367
0.135
0.1333
0.135
0.1317
0.1333
0.1233
0.1233
0.115
0.115
0.0967
0.0967
0.0867
0.085
0.0767
0.0767
0.0717
0.0733
0.075
0.075
0.08
0.08
0.0833
0.0833
0.0817
0.0817
0.0783
0.08
0.075
0.075
0.0717
0.0717
0.0667
0.0667
0.07
0.065
0.0633
0.0633
0.0617
0.0617
0.065
0.065
0.06
0.06
0.0517
0.0533
0.0483
0.0483
0.0467
0.05
0.0467
0.0483
0.045
0.0483
0.0433
0.045
0.04
0.0417
0.0383
0.0383
0.0417
0.04
0.045
0.0467
0.0533
0.0533
0.0767
0.0783
0.1433
0.145
-0.0283
-0.025
0.0117
0.0133
0.0333
0.035
0.0383
0.0383
0.0283
0.0267
0.0233
0.0217
0.0267
0.0267
0.0317
0.0317
0.0333
0.0333
0.0283
0.03
0.0267
0.0267
0.0183
0.0183
0.0083
0.0083
-0.0017
-0.0017
-0.0417
-0.045
-0.1233
-0.1267
-0.1417
-0.135
-0.0283
-0.025
0.0567
0.0583
0.0783
0.075
0.045
0.045
0.0217
0.02
0.01
0.01
0.005
0.005
0.0067
0.0083
0.0133
0.015
0.0183
0.0167
0.02
0.02
0.025
0.025
0.0183
0.0167
0.0067
0.005
-0.0033
-0.0033
0.0017
0.0017
0.0133
0.0133
0.02
0.02
0.0367
0.0367
0.065
0.0667
0.09
0.08
0.0167
0.03
0.2183
0.0133
0.2267
0.2017
-0.175
-0.1817
-0.2583
-0.2233
-0.1
-0.095
-0.0433
-0.0417
-0.05
-0.0533
-0.0417
-0.0417
-0.0283
-0.0283
-0.035
-0.0317
-0.0383
-0.0383
-0.0333
-0.0333
-0.025
-0.0233
-0.0217
-0.0217
-0.0333
-0.0333
-0.0283
-0.0267
-0.0217
-0.025
-0.0183
-0.0217
-0.0267
-0.0217
-0.0317
-0.0333
-0.1017
-0.12
-0.08
-0.0767
0.02
0.0217
0.0483
0.0467
0.0133
0.0117
-0.015
-0.015
-0.0317
-0.0317
-0.04
-0.04
-0.0467
-0.045
-0.0467
-0.045
-0.0367
-0.0367
-0.0267
-0.0267
-0.015
-0.015
-0.0067
-0.0067
-0.0017
-0.0033
0.0017
-0.0033
-0.01
-0.0117
-0.0183
-0.0183
-0.0233
-0.0233
-0.025
-0.025
-0.0317
-0.0317
-0.04
-0.04
-0.0433
-0.0417
-0.0367
-0.0383
-0.0283
-0.0267
-0.0183
-0.0183
-0.0117
-0.01
-0.015
-0.0167
-0.035
-0.0367
-0.0567
-0.0567
-0.0667
-0.0683
-0.06
-0.0583
-0.0467
-0.0483
-0.0417
-0.0433
-0.0417
-0.0433
-0.0333
-0.0333
-0.0217
-0.0217
-0.01
-0.0083
-0.0133
-0.0133
-0.0167
-0.0167
-0.03
-0.0317
-0.035
-0.0333
-0.03
-0.0283
-0.025
-0.025
-0.03
-0.0267
-0.0383
-0.0367
-0.0467
-0.0467
-0.0517
-0.05
-0.0533
-0.0517
-0.0433
-0.0433
-0.035
-0.035
-0.0283
-0.0283
-0.025
-0.0267
-0.03
-0.03
-0.0267
-0.0283
-0.0283
-0.0283
-0.0333
-0.03
-0.0333
-0.0333
-0.0383
-0.0383
-0.0433
-0.0417
-0.045
-0.0433
-0.04
-0.04
-0.0367
-0.035
-0.0383
-0.0383
-0.0433
-0.0433
-0.05
-0.0483
-0.0583
-0.0583
-0.065
-0.065
-0.0683
-0.0683
-0.0633
-0.0633
-0.0567
-0.0567
-0.055
-0.055
-0.0567
-0.0567
-0.055
-0.055
-0.0583
-0.0583
-0.0583
-0.0567
-0.06
-0.0583
-0.06
-0.0583
-0.0617
-0.0583
-0.06
-0.0583
-0.0567
-0.0583
-0.0617
-0.06
-0.0517
-0.05
-0.0383
-0.0383
-0.0267
-0.0267
-0.02
-0.0183
-0.0083
-0.0083
0.0033
0.0033
0.015
0.015
0.0317
0.0333
0.0683
0.0717
0.1217
0.1517
0.0417
0.0267
-0.1283
-0.07
-0.1067
-0.085
0.0017
0.005
0.0567
0.0567
0.03
0.0283
-0.02
-0.0217
-0.09
-0.095
-0.1967
-0.2
-0.2367
-0.2333
-0.1333
-0.1283
-0.04
-0.0367
0.02
0.0217
0.0467
0.05
-0.1517
-0.155
-0.13
-0.1283
-0.0933
-0.0917
-0.07
-0.0683
-0.0583
-0.0567
-0.0483
-0.0483
-0.035
-0.0333
-0.0183
-0.0183
-0.0067
-0.0067
-0.0017
-0.0067
-0.0133
-0.0133
-0.02
-0.02
-0.03
-0.03
-0.0367
-0.0367
-0.04
-0.0433
-0.0367
-0.0367
-0.03
-0.0317
-0.0267
-0.0283
-0.025
-0.0267
-0.0233
-0.025
-0.0233
-0.0233
-0.02
-0.0183
-0.0117
-0.01
-0.0167
-0.0183
-0.06
-0.0617
-0.1017
-0.1033
-0.05
-0.0467
0.0133
0.02
0.0133
0.0083
0.015
0.0167
0.0283
0.03
0.05
0.05
0.07
0.03
0.13
0.1867
-0.04
0.2067
-0.075
-0.1
-0.1667
-0.1817
-0.1
-0.0967
-0.0417
-0.04
-0.0317
-0.03
-0.0233
-0.0233
-0.0083
-0.0067
0.0067
0.0083
0.0117
0.0117
0.0183
0.02
0.015
0.015
0.0083
0.01
0.005
0.0067
0.0017
0.0017
-0.0167
-0.0167
-0.0333
-0.0333
-0.0383
-0.035
-0.0383
-0.0367
-0.0333
-0.035
-0.0283
-0.0283
-0.0217
-0.0233
-0.0183
-0.0183
-0.0133
-0.015
-0.01
-0.0083
-0.0117
-0.01
-0.0067
-0.0067
-0.01
-0.0067
-0.0083
-0.0067
-0.0083
-0.0083
-0.0167
-0.0167
-0.0233
-0.025
-0.0317
-0.03
-0.0283
-0.03
-0.0333
-0.0333
-0.0283
-0.03
-0.025
-0.025
-0.0267
-0.025
-0.0283
-0.025
-0.0283
-0.0283
-0.0317
-0.0317
-0.0267
-0.0267
-0.0167
-0.0167
-0.005
-0.005
0.0067
0.0067
0.0217
0.0233
0.035
0.035
0.0283
0.0267
0.02
0.0217
0.0167
0.0167
0.0117
0.01
0.0067
0.0083
0.0117
0.01
0.0083
0.0083
0.005
0.005
0.0083
0.0083
0.0067
0.0067
0.0033
0.005
0.0033
0.0033
-0.0017
-0.0017
0.0017
0
-0.0017
0.0017
-0.0017
0
-0.0033
-0.0017
-0.005
-0.005
-0.0083
-0.0083
-0.01
-0.01
-0.0117
-0.0117
-0.0133
-0.0133
-0.0083
-0.0083
-0.005
-0.005
-0.0083
-0.0083
-0.005
-0.005
-0.0033
-0.0033
0
0
0.0017
0.0017
0.005
0.005
0.0067
0.0067
0.005
0.005
0
-0.0017
0.0017
0
-0.0033
-0.0033
-0.005
-0.0067
-0.0033
-0.0033
0.0033
0.0017
0.005
0.0033
-0.0017
-0.0017
-0.01
-0.01
-0.0133
-0.0133
-0.0183
-0.02
-0.0167
-0.0167
-0.0083
-0.01
-0.005
-0.0067
-0.0017
-0.005
-0.0133
-0.0133
-0.03
-0.03
-0.0333
-0.0317
-0.035
-0.0317
-0.025
-0.025
-0.0217
-0.0233
-0.0133
-0.0117
-0.035
-0.0367
-0.1267
-0.1267
-0.06
-0.0567
0.0317
0.035
0.0783
0.0817
0.07
0.0683
0.0433
0.0417
0.0233
0.0217
0.0117
0.0117
0.015
0.0133
0.0167
0.0167
0.0167
0.0167
0.0133
0.0117
0
0
-0.0083
-0.0083
-0.01
-0.0083
-0.0033
-0.0033
0.0017
0.0017
0.0033
0.0017
-0.01
-0.01
-0.0217
-0.0217
-0.0267
-0.0267
-0.0317
-0.0317
-0.0283
-0.0317
-0.03
-0.0317
-0.0283
-0.03
-0.0267
-0.0283
-0.035
-0.0317
-0.035
-0.0333
-0.0267
-0.0267
-0.025
-0.025
-0.0283
-0.03
-0.0267
-0.03
-0.0267
-0.0283
-0.02
-0.0217
-0.0183
-0.02
-0.0267
-0.0267
-0.0733
-0.0767
-0.1533
-0.1567
-0.1333
-0.1283
-0.0317
-0.0283
0.045
0.0467
0.0567
0.0467
0.0133
0.0117
-0.0117
-0.0133
-0.0217
-0.0217
-0.025
-0.0233
-0.0267
-0.0267
-0.0317
-0.0317
-0.035
-0.0333
-0.03
-0.03
-0.025
-0.025
-0.0233
-0.0217
-0.025
-0.0233
-0.025
-0.025
-0.0233
-0.0233
-0.0267
-0.025
-0.02
-0.02
-0.0167
-0.0167
0.0017
0.0033
0.0517
0.0567
-0.115
-0.115
-0.075
-0.0733
-0.0367
-0.035
-0.015
-0.0167
-0.0117
-0.0117
0.0083
0.01
0.03
0.03
0.0417
0.0433
0.0367
0.0333
0.0633
0.0667
0.165
0.165
-0.0083
-0.0133
-0.065
-0.0683
0.0067
0.015
0.1317
0.1333
0.15
0.1383
0.0833
0.0817
0.0217
0.02
-0.0033
-0.0033
0.0033
0.0017
-0.0683
-0.0933
0.1017
0.1033
-0.0867
0.135
-0.2117
-0.1967
-0.26
-0.2483
-0.135
-0.13
-0.0733
-0.0733
-0.06
-0.06
-0.0517
-0.0517
-0.0417
-0.0417
-0.035
-0.0367
-0.0333
-0.0333
-0.035
-0.035
-0.03
-0.0317
-0.0283
-0.0283
-0.025
-0.025
-0.0217
-0.02
-0.0167
-0.0183
-0.02
-0.02
-0.015
-0.015
-0.0117
-0.01
0
0
0.0083
0.0083
0.0133
0.0133
0.0183
0.0183
0.0233
0.0233
0.03
0.03
0.0333
0.0317
0.035
0.035
0.0383
0.035
0.0233
0.0233
0
0
-0.0117
-0.0117
-0.0167
-0.0133
-0.0083
-0.0083
0
0
0.0067
0.0083
0.015
0.015
0.0217
0.02
0.03
0.0283
0.035
0.0333
0.0367
0.0367
0.04
0.04
0.0367
0.0383
0.03
0.03
0.0267
0.0267
0.0333
0.0333
0.04
0.04
0.0383
0.0417
0.0467
0.0467
0.0433
0.045
0.0417
0.0417
0.0383
0.0383
0.0433
0.0433
0.05
0.05
0.065
0.0667
0.08
0.0783
0.0733
0.0767
0.0683
0.1
0.0667
0.0583
0.0567
0.04
0.0417
0.03
0.03
0.0333
0.0333
0.0317
0.0317
0.025
0.025
0.0217
0.0233
0.02
0.0233
0.03
0.0283
0.0333
0.0333
0.0367
0.0367
0.0383
0.0383
0.035
0.0367
0.0317
0.0333
0.0283
0.0267
0.0317
0.0317
0.0383
0.04
0.0483
0.0483
0.0583
0.06
0.0533
0.0533
0.0467
0.0467
0.0433
0.045
0.0417
0.045
0.05
0.0483
0.0567
0.0567
0.05
0.05
0.0417
0.0417
0.0333
0.0333
0.025
0.0267
0.04
0.04
0.0533
0.0533
0.05
0.0533
0.0483
0.05
0.0467
0.0467
0.05
0.0467
0.045
0.0467
0.045
0.045
0.0483
0.05
0.055
0.055
0.06
0.06
0.0617
0.0583
0.05
0.0483
0.0367
0.04
0.035
0.035
0.0367
0.035
0.0367
0.0367
0.04
0.0383
0.0367
0.0367
0.0333
0.0333
0.0267
0.0267
0.03
0.0283
0.035
0.035
0.0367
0.035
0.02
0.0183
-0.0017
-0.0033
-0.0167
-0.0183
-0.03
-0.0317
-0.0283
-0.0283
-0.0183
-0.0183
-0.0117
-0.0117
-0.0033
-0.0033
0.005
0.0067
-0.0083
-0.01
-0.0683
-0.0717
-0.125
-0.12
-0.0617
-0.0567
0.025
0.0283
0.08
0.0833
0.0617
0.06
0.0267
0.025
0.0083
0.0067
-0.0017
-0.0017
-0.005
-0.005
-0.0067
-0.0083
-0.005
-0.0033
-0.0067
-0.0033
-0.01
-0.01
-0.0133
-0.01
-0.0133
-0.015
-0.0167
-0.015
-0.025
-0.0283
-0.02
-0.0267
-0.09
-0.095
-0.1217
-0.1
0.0033
0.0067
0.0533
0.055
0.0483
0.0483
0.035
0.0333
0.025
0.0233
0.025
0.025
0.0233
0.0233
0.0183
0.0167
0.0133
0.0167
0.0117
0.015
0.0133
0.015
0.04
0.0433
0.0717
0.0717
-0.1317
-0.135
-0.12
-0.12
-0.0967
-0.095
-0.0833
-0.0817
-0.0683
-0.0667
-0.0567
-0.0567
-0.0617
-0.0633
-0.0933
-0.0933
-0.1033
-0.0983
0
0.005
0.085
0.09
0.0767
0.075
0.0667
0.0683
0.065
0.065
0.0483
0.0533
0.0417
0.0417
0.0367
0.0383
0.0333
0.035
0.0483
0.0483
0.0583
0.0517
-0.0283
-0.0233
0.1733
0.0017
0.1767
0.0917
-0.21
-0.175
-0.2383
-0.1983
-0.13
-0.1283
-0.1033
-0.1033
-0.0933
-0.0917
-0.08
-0.08
-0.0667
-0.0683
-0.0517
-0.05
-0.035
-0.035
-0.02
-0.02
-0.0117
-0.0117
-0.01
-0.0117
-0.0083
-0.0117
-0.0017
-0.0017
0.0133
0.0133
0.0167
0.0117
0.0167
0.015
0.02
0.0167
0.0217
0.0217
0.0333
0.0333
0.0583
0.06
0.095
0.0967
0.1567
0.16
0.2383
0.2467
0.0783
0.065
-0.1033
-0.1583
-0.09
-0.0833
0.02
0.0233
0.0517
0.0483
0.0067
0.0033
-0.0433
-0.045
-0.0783
-0.08
-0.0983
-0.1
-0.1083
-0.1083
-0.1133
-0.115
-0.12
-0.1183
-0.1217
-0.12
-0.1167
-0.1167
-0.105
-0.105
-0.0917
-0.0917
-0.0733
-0.0733
-0.06
-0.06
-0.0483
-0.0483
-0.045
-0.0483
-0.045
-0.045
-0.0367
-0.0367
-0.035
-0.035
-0.035
-0.0367
-0.0333
-0.0333
-0.0267
-0.0283
-0.025
-0.025
-0.0333
-0.0317
-0.0367
-0.0367
-0.0433
-0.045
-0.055
-0.0533
-0.065
-0.065
-0.07
-0.0683
-0.06
-0.06
-0.0417
-0.04
-0.0183
-0.0167
-0.005
-0.005
-0.0083
-0.0067
-0.0033
-0.0033
-0.0017
-0.005
0
0
-0.0083
-0.0083
-0.0183
-0.0183
-0.0267
-0.0267
-0.03
-0.0267
-0.0183
-0.0183
-0.0067
-0.0083
-0.0017
-0.0033
0
0
0.0017
0.0017
-0.0033
-0.005
0
-0.0017
-0.0033
-0.0033
-0.005
-0.0067
-0.0033
-0.005
-0.015
-0.015
-0.0183
-0.0183
-0.015
-0.015
-0.0117
-0.0117
-0.0067
-0.0083
-0.005
-0.0067
-0.005
-0.0033
0.0017
0.0017
0.005
0
0.0033
0.0017
0.0083
0.0083
0.0233
0.025
0.05
0.05
0.0683
0.0683
0.0717
0.0683
0.0617
0.06
0.0567
0.0567
0.0517
0.0517
0.0483
0.0483
0.05
0.05
0.0467
0.0483
0.045
0.0467
0.05
0.05
0.0567
0.0567
0.0583
0.0583
0.0617
0.06
0.0617
0.0583
0.0617
0.0617
0.0583
0.0617
0.0683
0.0733
0.0667
0.065
0.025
0.0217
-0.06
-0.07
-0.055
-0.0533
0.0233
0.0267
0.0917
0.095
0.1117
0.1083
0.095
0.095
0.0833
0.085
0.075
0.075
0.06
0.06
0.05
0.05
0.0467
0.0467
0.05
0.05
0.055
0.055
0.0533
0.055
0.0517
0.05
0.0467
0.045
0.05
0.05
0.0483
0.05
0.0467
0.0483
0.0417
0.0417
0.0383
0.04
0.0367
0.0417
0.0433
0.045
0.05
0.05
0.055
0.0533
0.0517
0.0533
0.045
0.045
0.035
0.035
0.025
0.025
0.0183
0.0183
0.01
0.01
0.005
0.005
0.0017
0.0017
0.0033
0
0.0033
0.0017
0.0067
0.005
0.015
0.015
0.0317
0.0333
0.0467
0.0483
0.0583
0.0583
0.05
0.05
0.0367
0.0367
0.025
0.025
0.0183
0.0183
0.015
0.015
0.0167
0.0167
0.0133
0.0133
0.01
0.0133
0.01
0.01
0.0067
0.0083
0.01
0.0083
0.0117
0.0133
0.01
0.0133
0.015
0.015
0.0117
0.0133
0.0083
0.01
0.005
0.005
-0.0017
-0.0017
-0.0283
-0.03
-0.0633
-0.0667
-0.0367
-0.0333
0.0383
0.04
0.0533
0.0483
0.035
0.0367
0.0417
0.0417
0.035
0.035
0.0283
0.0267
0.01
0.01
0.0033
0.0017
-0.0033
-0.0033
0
0
0.0033
0.0017
0.0067
0.0067
0.0167
0.015
0.0183
0.0167
0.0217
0.0217
0.0233
0.0233
0.0267
0.0267
0.0383
0.0383
0.0483
0.0483
0.0717
0.075
0.1117
0.1117
-0.0583
-0.0567
-0.0167
-0.015
0.025
0.025
0.055
0.07
0.0333
-0.03
0.04
0.08
-0.0967
0.1567
-0.08
-0.08
-0.1317
-0.1333
-0.0617
-0.0583
-0.0233
-0.0233
-0.0283
-0.0283
-0.0367
-0.0367
-0.045
-0.0433
-0.0417
-0.04
-0.03
-0.0283
-0.0167
-0.0167
-0.01
-0.01
-0.0033
-0.0033
0.0017
0.0017
0.0033
0.0033
-0.0033
-0.005
-0.0083
-0.0067
-0.0033
-0.005
-0.0033
-0.005
-0.0083
-0.0083
-0.0133
-0.0133
-0.0167
-0.015
-0.0217
-0.0217
-0.0283
-0.0283
-0.0317
-0.0333
-0.0283
-0.0283
-0.0217
-0.0217
-0.0167
-0.0167
-0.015
-0.015
-0.0183
-0.0183
-0.0183
-0.02
-0.015
-0.0167
-0.0117
-0.0133
-0.005
-0.005
0
0
0.0017
0.0017
0
0
-0.01
-0.01
-0.0233
-0.0233
-0.0333
-0.0333
-0.0267
-0.0267
-0.0183
-0.015
-0.02
-0.02
-0.0083
-0.0083
0.0033
0.0033
0.005
0.0017
-0.0033
-0.0017
0.0017
-0.0017
0.01
0.01
0.0283
0.03
0.05
0.0517
0.08
0.0817
0.1433
0.1433
0.185
0.1617
-0.125
-0.1417
-0.125
-0.1267
-0.0717
-0.0667
0.03
0.0333
0.0517
0.0483
0.0183
0.0167
-0.025
-0.0267
-0.0533
-0.055
-0.0683
-0.0683
-0.0817
-0.0817
-0.085
-0.085
-0.0767
-0.0783
-0.0667
-0.065
-0.0533
-0.0517
-0.0433
-0.0417
-0.0317
-0.0333
-0.045
-0.045
-0.0517
-0.0517
-0.0567
-0.0583
-0.0917
-0.095
-0.1717
-0.175
-0.1883
-0.1767
-0.0683
-0.065
0.035
0.04
0.085
0.0867
0.065
0.0633
0.0217
0.02
-0.01
-0.01
-0.02
-0.0217
-0.025
-0.025
-0.0267
-0.025
-0.0283
-0.0267
-0.0217
-0.0233
-0.0183
-0.0183
-0.0167
-0.0167
-0.0133
-0.0117
-0.005
-0.0067
-0.0033
-0.0067
-0.01
-0.01
-0.0083
-0.01
-0.015
-0.015
-0.02
-0.02
-0.0317
-0.0317
-0.0283
-0.0283
-0.02
-0.0217
-0.0167
-0.0167
-0.015
-0.0133
-0.0083
-0.0067
0.0017
0.0017
0.0033
0.0017
-0.0033
-0.005
-0.015
-0.0167
-0.035
-0.035
-0.0417
-0.0417
-0.0367
-0.0367
-0.025
-0.025
-0.0167
-0.0167
-0.0267
-0.0267
-0.0333
-0.0333
-0.0383
-0.0367
-0.04
-0.04
-0.045
-0.0467
-0.0433
-0.0433
-0.04
-0.04
-0.0383
-0.0383
-0.0333
-0.0333
-0.0283
-0.0283
-0.0217
-0.0217
-0.0167
-0.0167
-0.01
-0.01
-0.0017
-0.0017
0.0133
0.0133
0.0333
0.035
0.0433
0.0417
0.0283
0.0283
0.0117
0.0117
0.0017
0.0017
-0.0067
-0.0067
-0.0167
-0.0183
-0.0567
-0.0583
-0.0783
-0.0767
-0.0117
-0.0083
0.0433
0.0433
0.0283
0.0267
0.0167
0.0183
0.0167
0.015
0.0033
0.0033
-0.0083
-0.0083
-0.0117
-0.0117
-0.0083
-0.01
-0.0067
-0.01
-0.0083
-0.0083
-0.0083
-0.0067
-0.01
-0.01
-0.0067
-0.0083
-0.01
-0.0083
-0.01
-0.0083
-0.005
-0.0067
-0.005
-0.0067
-0.0117
-0.0117
-0.0167
-0.015
-0.0183
-0.0183
-0.015
-0.0167
-0.0133
-0.0133
-0.01
-0.01
-0.005
-0.0067
-0.0017
-0.0033
-0.0017
-0.0017
0.0033
0.0033
0.01
0.01
0.015
0.015
0.0367
0.04
0.1
0.1017
-0.0567
-0.055
-0.0183
-0.0167
0.0067
0.0067
0.0217
0.0217
0.0283
0.0283
0.03
0.0283
0.035
0.0367
0.0633
0.065
0.085
0.0783
0.0083
0.01
0.1667
0.0017
0.1867
0.1967
-0.1267
-0.1133
-0.1767
0.1
-0.145
-0.0683
-0.0667
-0.0367
-0.0367
-0.0267
-0.0267
-0.025
-0.025
-0.03
-0.03
-0.0233
-0.025
-0.0133
-0.0117
-0.0017
0
0.0133
0.0133
0.0267
0.0283
0.0367
0.0383
0.0283
0.0283
0.01
0.0083
0.0017
0.0017
0.005
0.0033
0.0083
0.0083
0.0033
0.0033
-0.0033
-0.0017
-0.0117
-0.0133
-0.0067
-0.0083
-0.0333
-0.035
-0.0883
-0.08
0.0067
0.0117
0.0717
0.075
0.0683
0.0683
0.045
0.045
0.0317
0.0317
0.0283
0.0317
0.0333
0.0333
0.0417
0.04
0.0433
0.0417
0.0433
0.0417
0.04
0.04
0.0317
0.0317
0.0183
0.0167
0.01
0.01
0.0033
0.0033
0.0067
0.005
0.0083
0.0067
0.0017
0.0017
-0.0017
0
-0.01
-0.0083
-0.015
-0.0133
-0.015
-0.015
-0.02
-0.02
-0.0217
-0.02
-0.01
-0.01
0.0067
0.0067
0.02
0.02
0.035
0.035
0.04
0.0383
0.035
0.0367
0.0267
0.025
0.0167
0.0133
0.025
0.0267
0.0417
0.0417
0.0517
0.0517
0.0567
0.0567
0.05
0.05
0.0367
0.035
0.0167
0.015
-0.01
-0.0117
-0.05
-0.0517
-0.12
-0.1233
-0.165
-0.1667
-0.0733
-0.0667
0.0483
0.0517
0.105
0.105
0.0717
0.0683
0.0267
0.025
-0.005
-0.0067
-0.025
-0.0267
-0.0383
-0.04
-0.035
-0.035
-0.0383
-0.0383
-0.025
-0.0233
-0.01
-0.0083
0
-0.0017
0.005
0.005
0.0083
0.01
0.0167
0.0167
0.0333
0.035
0.06
0.0617
0.1083
0.11
0.18
0.1817
0.215
0.1833
-0.0917
-0.105
-0.0617
-0.0567
-0.01
-0.005
0.0667
0.0733
0.065
0.0633
0.02
0.0183
-0.0217
-0.0233
-0.0517
-0.0517
-0.07
-0.0717
-0.0883
-0.0883
-0.0983
-0.0983
-0.1083
-0.1083
-0.1117
-0.1083
-0.0967
-0.0967
-0.085
-0.085
-0.0733
-0.0733
-0.0667
-0.0667
-0.0617
-0.0617
-0.0583
-0.0583
-0.0633
-0.0633
-0.06
-0.06
-0.0567
-0.0567
-0.045
-0.0467
-0.04
-0.04
-0.03
-0.03
-0.015
-0.015
0
0.0017
0.015
0.015
0.02
0.0183
0.0217
0.02
0.015
0.015
0.0083
0.0083
0.005
0.0033
0.0083
0.0083
0.02
0.0217
0.0367
0.0367
0.0433
0.0417
0.035
0.0333
0.0083
0.0067
-0.025
-0.0267
-0.045
-0.0467
-0.04
-0.0383
-0.0233
-0.0217
-0.01
-0.01
-0.0033
-0.0033
0
-0.0017
0.0017
0.0017
-0.0033
-0.0017
-0.0083
-0.0083
-0.01
-0.0117
-0.0167
-0.0167
-0.015
-0.015
-0.01
-0.0117
-0.005
-0.0067
-0.0033
-0.0033
-0.0067
-0.0083
-0.0183
-0.0183
-0.0267
-0.0283
-0.025
-0.0267
-0.0233
-0.0233
-0.0183
-0.0167
-0.01
-0.0067
-0.0117
-0.0133
-0.0483
-0.05
-0.0917
-0.1017
-0.0733
-0.07
0.005
0.0067
0.0183
0.0117
-0.0033
-0.0017
0.0033
0.0067
0
-0.0017
-0.005
-0.005
-0.0167
-0.015
-0.0083
-0.0083
0.0033
0.0033
0.0167
0.0167
0.0267
0.0267
0.025
0.0267
0.03
0.0317
0.0217
0.0217
0.015
0.015
0.0233
0.025
0.035
0.0367
0.065
0.0667
0.1
0.1017
0.0567
0.055
0.18
-0.015
0.1533
0.1617
-0.1483
-0.0917
-0.1267
-0.095
-0.2017
-0.175
-0.1
-0.0983
-0.055
-0.0533
-0.0333
-0.0333
-0.0283
-0.0283
-0.0233
-0.025
-0.0217
-0.0217
-0.0233
-0.0233
-0.01
-0.01
-0.0017
-0.0017
0
0
-0.0083
-0.0083
-0.0183
-0.0183
-0.0233
-0.0233
-0.025
-0.0233
-0.0167
-0.015
-0.005
-0.005
0.0017
0.0033
0.0083
0.005
0.0083
0.0067
0.01
0.01
0.0083
0.0083
0.0033
0.0033
0.0017
0.0017
0.01
0.0117
0.015
0.015
0.0133
0.0133
0.005
0.0033
-0.0033
-0.0033
-0.0067
-0.005
-0.0083
-0.0067
-0.0033
-0.0033
0.0033
0.0017
0.01
0.01
0.025
0.025
0.0317
0.03
0.0233
0.0233
0.02
0.0217
0.025
0.0233
0.025
0.0233
0.02
0.02
0.0117
0.0133
0.0083
0.0083
0.005
0.005
0.0083
0.0083
0.0017
0
-0.04
-0.0433
-0.1233
-0.1267
-0.1317
-0.125
-0.0333
-0.03
0.025
0.0267
0.0417
0.0383
0.0083
0.0067
-0.065
-0.0717
-0.015
-0.0117
0.0717
0.075
0.095
0.0917
0.0583
0.0567
0.0333
0.0333
0.03
0.0283
0.0333
0.035
0.0417
0.0417
0.0383
0.04
0.035
0.035
0.0333
0.0333
0.0283
0.0283
0.0183
0.0183
0.01
0.0083
0.005
0.0067
0.01
0.0083
0.0133
0.0133
0.0117
0.0133
0.015
0.015
0.0133
0.015
0.0183
0.0167
0.0183
0.0183
0.015
0.015
0.0183
0.0167
0.02
0.02
0.0167
0.0167
0.02
0.0183
0.0167
0.0183
0.0167
0.0183
0.0133
0.0133
0.01
0.01
0.0067
0.0083
0.0067
0.0067
0.005
0.005
0.0083
0.0083
0.0067
0.0067
0.005
0.005
0.01
0.01
0.0083
0.0083
0.0067
0.0083
0.005
0.005
0.01
0.01
0.0133
0.015
0.0133
0.015
0.0167
0.015
0.0083
0.0083
0.0017
0
-0.0067
-0.0083
-0.0133
-0.01
-0.0133
-0.0133
-0.015
-0.0133
-0.015
-0.0133
-0.015
-0.0117
-0.015
-0.0133
-0.0167
-0.0167
-0.0133
-0.015
-0.0067
-0.0067
-0.0017
-0.0017
0.0117
0.0117
0.0183
0.0167
0.02
0.02
0.0233
0.0217
0.0167
0.0183
0.0117
0.0117
0.02
0.02
0.0283
0.0267
0.04
0.0383
0.0417
0.04
0.035
0.035
0.025
0.025
0.0233
0.0233
0.035
0.035
0.0417
0.0417
0.045
0.0433
0.0517
0.0517
0.06
0.0617
0.08
0.08
0.105
0.1067
0.14
0.1417
0.195
0.1983
0.2567
0.2567
0.0267
0.0133
-0.075
-0.0333
-0.0567
-0.035
0.06
0.0633
0.0817
0.0767
0.0283
0.0267
-0.0283
-0.0317
-0.0733
-0.075
-0.1033
-0.105
-0.1133
-0.1133
-0.1033
-0.1017
-0.0883
-0.0883
-0.1067
-0.1083
-0.1333
-0.135
-0.09
-0.0867
-0.0133
-0.0117
0.0017
-0.0017
0.0017
0.0033
0.0233
0.0267
0.0217
0.0217
0.015
0.0133
0.0067
0.0067
0.005
0.0067
0.0083
0.0083
0.01
0.01
0.0117
0.0117
0.0133
0.0133
0.0183
0.0167
0.025
0.0233
0.0267
0.0267
0.0283
0.0283
0.025
0.0267
0.0233
0.025
0.015
0.015
0.0017
0.0017
-0.005
-0.0033
0
0.0017
0.0083
0.0083
0.0117
0.01
0
0
-0.0067
-0.0083
-0.0117
-0.01
-0.0067
-0.0083
-0.005
-0.005
-0.0067
-0.0033
0.005
0.0067
0.0183
0.02
0.0367
0.0383
0.0633
0.065
0.1067
0.11
0.145
0.1517
0.1
0.1133
0.3233
0.1683
0.0333
0.0417
-0.1933
-0.2167
-0.1533
-0.1483
-0.0733
-0.0717
-0.0517
-0.0517
-0.0433
-0.0433
-0.035
-0.0383
-0.0317
-0.0317
-0.035
-0.0333
-0.0367
-0.035
-0.0283
-0.0283
-0.0183
-0.0167
-0.0033
-0.0033
0.0067
0.0083
0.0117
0.01
0.0033
0.0033
0
0.0033
0.01
0.01
0.0167
0.0167
0.0117
0.0117
0.0083
0.0083
0.0033
0.0033
-0.0017
-0.0017
-0.01
-0.0117
-0.015
-0.015
-0.0133
-0.0133
-0.0117
-0.0133
-0.0183
-0.0183
-0.0167
-0.0167
-0.0117
-0.0117
-0.0083
-0.01
-0.0083
-0.01
-0.0083
-0.0083
-0.0033
-0.0033
0.0017
0
0.005
0.005
0
-0.0017
-0.0533
-0.055
-0.1333
-0.1383
-0.105
-0.1
0.0017
0.005
0.075
0.0833
0.0717
0.07
0.0417
0.0417
0.025
0.025
0.0183
0.0183
0.01
0.0083
-0.0017
-0.0017
-0.0117
-0.0117
-0.005
-0.005
0.0183
0.02
0.0367
0.0367
0.03
0.0283
0.0167
0.0167
-0.0083
-0.0117
-0.0417
-0.0433
-0.0617
-0.0633
-0.0567
-0.055
-0.045
-0.045
-0.035
-0.035
-0.0333
-0.035
-0.0333
-0.0333
-0.0317
-0.0333
-0.04
-0.0383
-0.0433
-0.045
-0.0383
-0.0367
-0.0517
-0.055
-0.1133
-0.1083
-0.0533
-0.0483
0.0267
0.0283
0.0433
0.0417
0.035
0.0333
0.025
0.025
0.0217
0.0233
0.0167
0.0183
0.0117
0.0117
0.005
0.0033
0
0
-0.0083
-0.0083
-0.0133
-0.015
-0.02
-0.0183
-0.025
-0.025
-0.0267
-0.025
-0.0283
-0.0283
-0.035
-0.035
-0.0383
-0.0367
-0.0383
-0.0383
-0.0367
-0.0367
-0.0283
-0.0283
-0.0183
-0.0183
-0.0067
-0.0067
0
-0.0017
-0.0067
-0.0067
-0.005
-0.0067
-0.0117
-0.01
-0.0117
-0.01
-0.015
-0.015
-0.0233
-0.0233
-0.0333
-0.0333
-0.0367
-0.0367
-0.0383
-0.0367
-0.03
-0.0317
-0.025
-0.025
-0.0217
-0.0233
-0.0167
-0.0183
-0.015
-0.0167
-0.0117
-0.0117
-0.005
-0.005
-0.0017
-0.0017
-0.0183
-0.02
-0.0567
-0.0667
-0.0383
-0.035
0.0517
0.055
0.0667
0.0617
0.0433
0.0433
0.0283
0.0283
0.0067
0.0067
-0.0017
-0.0033
-0.0117
-0.015
-0.01
-0.01
0
0
0.01
0.01
0.0283
0.03
0.05
0.05
0.0867
0.0883
0.1533
0.1567
0.2167
0.215
-0.0433
-0.05
-0.1
-0.0883
-0.04
-0.0333
0.07
0.0733
0.095
0.09
0.045
0.0417
-0.0167
-0.0183
-0.0617
-0.0633
-0.0783
0.1
-0.08
-0.0867
-0.085
-0.0817
-0.0817
-0.0867
-0.0883
-0.0917
-0.09
-0.0883
-0.0883
-0.0717
-0.07
-0.0483
-0.0483
-0.0367
-0.0367
-0.04
-0.04
-0.0383
-0.0383
-0.0317
-0.03
-0.0217
-0.0217
-0.0133
-0.0133
-0.005
-0.0033
0.0083
0.0083
0.02
0.02
0.0333
0.0333
0.0417
0.04
0.0233
0.0233
-0.0067
-0.0067
-0.0233
-0.0267
-0.0217
-0.02
0
0
0.0167
0.0167
0.0333
0.035
0.0683
0.0683
0.095
0.0917
0.04
0.16
-0.005
-0.0267
0.1717
0.1267
-0.1483
-0.135
-0.1933
-0.1433
-0.0683
-0.0667
-0.0417
-0.04
-0.0333
-0.0333
-0.03
-0.0317
-0.0267
-0.0283
-0.0233
-0.0233
-0.02
-0.0217
-0.015
-0.0167
-0.0133
-0.015
-0.0117
-0.0133
-0.0117
-0.0117
-0.01
-0.0083
-0.0117
-0.01
-0.005
-0.0067
-0.0017
-0.0033
0.0017
0.0017
0.01
0.0117
0.02
0.02
0.025
0.025
0.0217
0.0217
0.0067
0.0067
-0.0017
-0.0033
0
-0.0017
-0.005
-0.005
-0.0083
-0.0067
-0.0083
-0.0067
-0.0117
-0.0117
-0.005
-0.005
0.005
0.005
0.01
0.0067
-0.0267
-0.03
-0.0883
-0.0917
-0.0683
-0.065
0.045
0.0483
0.145
0.1483
0.2017
0.205
0.02
0.01
0.0233
0.0233
0.0433
0.0433
0.05
0.05
0.045
0.045
0.0383
0.0383
0.0367
0.0367
0.0333
0.0333
0.0367
0.035
0.0333
0.0333
0.03
0.03
0.0267
0.0283
0.0217
0.025
0.02
0.0217
0.015
0.0167
0.0117
0.015
0.01
0.01
0.0067
0.01
0.0067
0.0067
0.0033
0.0033
0.0017
0.0033
0.0017
0.0017
-0.0017
0.0017
0
0.0017
-0.0017
0
-0.01
-0.01
-0.02
-0.02
-0.0233
-0.0217
-0.015
-0.015
0
0.0017
0.0267
0.0283
0.0367
0.0383
0.0417
0.0417
0.0383
0.04
0.0333
0.035
0.0317
0.0333
0.0283
0.0283
0.025
0.0267
0.0217
0.0217
0.025
0.025
0.0283
0.0283
0.0267
0.0267
0.0283
0.0283
0.0267
0.0267
0.0167
0.0167
0.0083
0.0067
-0.0067
-0.0067
-0.0183
-0.02
-0.0283
-0.03
-0.0333
-0.0333
-0.0367
-0.035
-0.03
-0.03
-0.0267
-0.0267
-0.0233
-0.025
-0.0217
-0.0233
-0.02
-0.0217
-0.0183
-0.02
-0.025
-0.025
-0.0333
-0.0317
-0.035
-0.0317
-0.03
-0.03
-0.0233
-0.025
-0.0283
-0.03
-0.0267
-0.0283
-0.0233
-0.025
-0.02
-0.02
-0.0167
-0.0183
-0.0167
-0.02
-0.025
-0.025
-0.0283
-0.0267
-0.0233
-0.025
-0.0183
-0.0183
-0.0117
-0.0117
-0.01
-0.0117
-0.005
-0.0083
-0.005
-0.0083
-0.005
-0.0067
-0.0017
-0.0017
0.0017
0
-0.0017
0
-0.005
-0.005
-0.0083
-0.0083
-0.0133
-0.0133
-0.0117
-0.0117
-0.015
-0.0133
-0.0167
-0.0167
-0.0217
-0.0217
-0.0283
-0.0283
-0.0317
-0.03
-0.0267
-0.0283
-0.0267
-0.0267
-0.0233
-0.025
-0.0283
-0.0283
-0.0333
-0.0317
-0.03
-0.03
-0.035
-0.035
-0.0433
-0.0433
-0.0583
-0.0583
-0.0667
-0.0617
-0.0733
-0.0767
-0.1367
-0.135
-0.0683
-0.065
-0.0167
-0.0167
-0.0117
-0.01
0.0433
0.045
0.055
0.0433
0.0117
0.0117
0.0033
0.0067
-0.005
-0.005
-0.0217
-0.0217
-0.0433
-0.0433
-0.055
-0.055
-0.065
-0.065
-0.0767
-0.0767
-0.0717
-0.0717
-0.0617
-0.0617
-0.0483
-0.0483
-0.0417
-0.0417
-0.045
-0.0417
-0.04
-0.04
-0.0417
-0.04
-0.045
-0.0433
-0.0467
-0.0467
-0.055
-0.055
-0.0617
-0.0633
-0.075
-0.075
-0.0833
-0.0833
-0.08
-0.08
-0.0733
-0.0733
-0.07
-0.07
-0.06
-0.06
-0.0433
-0.0417
-0.0183
-0.0183
0.0017
0.005
-0.0017
-0.0017
0
0
-0.0067
-0.0067
-0.0167
-0.0167
-0.04
-0.04
-0.0483
-0.0483
-0.04
-0.04
-0.0217
-0.0217
-0.0067
-0.0067
0.0083
0.0083
0.035
0.0367
0.0633
0.065
0.0017
-0.0283
0.175
0.1783
-0.0017
0.2283
-0.1567
-0.1517
-0.2317
-0.2233
-0.1183
-0.115
-0.0517
-0.05
-0.02
-0.0167
-0.0233
-0.0233
-0.0483
-0.0483
-0.07
-0.07
-0.08
-0.0733
-0.0517
-0.05
-0.0317
-0.0317
-0.0217
-0.0217
-0.0617
-0.065
-0.1383
-0.1417
-0.1167
-0.1133
0.0183
0.0233
0.1333
0.1367
0.2017
0.1917
0.2133
0.2083
-0.0733
-0.12
-0.04
-0.0367
0.0183
0.02
0.07
0.0783
0.0683
0.0667
0.0167
0.015
-0.0367
-0.0383
-0.0767
-0.0783
-0.0967
-0.0967
-0.105
-0.1033
-0.0983
-0.0983
-0.0867
-0.085
-0.0783
-0.0783
-0.075
-0.075
-0.0683
-0.0667
-0.0617
-0.0617
-0.05
-0.05
-0.0433
-0.045
-0.05
-0.0517
-0.0667
-0.0683
-0.0733
-0.0733
-0.0767
-0.0767
-0.08
-0.0783
-0.0683
-0.0683
-0.0583
-0.0583
-0.05
-0.05
-0.0417
-0.0417
-0.0333
-0.0333
-0.0233
-0.0233
-0.0133
-0.0133
-0.005
-0.005
0.0067
0.0067
0.0133
0.015
0.0467
0.05
0.1133
0.1083
-0.075
-0.0717
-0.0333
-0.03
-0.0017
0
0.0183
0.0167
0.02
0.02
0.0167
0.015
0.0033
0.0033
-0.0033
-0.0017
-0.0067
-0.005
0
0
0.0217
0.0233
0.0167
0.015
0.005
0.0033
-0.0117
-0.0133
-0.0233
-0.025
-0.0317
-0.0317
-0.0333
-0.0333
-0.0317
-0.0317
-0.035
-0.0317
-0.035
-0.0333
-0.035
-0.0333
-0.0283
-0.0283
-0.0167
-0.0167
-0.0067
-0.005
0.0033
0.005
0.0017
0.0017
-0.005
-0.0033
-0.005
-0.0033
0.0017
0
0.005
0.0033
0.0067
0.0033
0.0067
0.0017
0.005
0.0033
0.0083
0.005
0.0083
0.005
0.0083
0.005
0.0067
0.005
0.0033
0.0033
-0.0033
-0.0033
-0.0117
-0.01
-0.015
-0.0133
-0.0217
-0.02
-0.025
-0.0233
-0.0267
-0.0267
-0.0317
-0.0317
-0.0367
-0.0367
-0.0317
-0.0317
-0.0267
-0.0283
-0.0233
-0.0233
-0.015
-0.0183
-0.0133
-0.015
-0.0117
-0.0133
-0.0083
-0.0083
-0.0117
-0.0117
-0.015
-0.0117
-0.0183
-0.0183
-0.02
-0.0217
-0.0267
-0.025
-0.03
-0.03
-0.035
-0.0367
-0.0333
-0.035
-0.0333
-0.0333
-0.0367
-0.035
-0.0383
-0.0383
-0.0417
-0.0417
-0.0433
-0.0433
-0.0417
-0.0417
-0.0383
-0.0383
-0.035
-0.0367
-0.0383
-0.0383
-0.0433
-0.0433
-0.0467
-0.0467
-0.0433
-0.0467
-0.0433
-0.045
-0.0417
-0.04
-0.0417
-0.04
-0.0383
-0.0383
-0.0433
-0.04
-0.0433
-0.0433
-0.045
-0.0433
-0.0417
-0.0417
-0.0317
-0.0317
-0.0233
-0.0267
-0.0233
-0.0217
-0.025
-0.025
-0.0333
-0.035
-0.0417
-0.04
-0.045
-0.045
-0.0467
-0.0483
-0.0433
-0.0417
-0.0483
-0.0483
-0.0667
-0.0683
-0.1083
-0.1083
-0.12
-0.11
-0.02
-0.015
0.0217
0.0217
0.005
0
0.0067
0.0067
0.015
0.0133
0.0167
0.0167
0.0217
0.0183
0.0167
0.0183
0.0233
0.025
0.0283
0.0283
0.0317
0.0317
0.025
0.025
0.0183
0.0167
0.005
0.005
-0.0067
-0.0083
-0.0167
-0.0167
-0.0183
-0.0183
-0.0083
-0.0083
0.0017
0.0017
0.005
0.0033
0.0067
0.0067
0.0133
0.0133
0.025
0.025
0.0367
0.0383
0.055
0.0567
0.085
0.085
0.115
0.1333
0.0717
0.055
0.2867
0.0217
0.215
0.3283
-0.1483
-0.1317
-0.2183
-0.21
-0.1183
-0.1167
-0.0733
-0.0733
-0.0683
-0.0683
-0.055
-0.055
-0.0883
-0.0917
-0.145
-0.1333
-0.0183
-0.015
0.0733
0.075
0.0917
0.0917
0.0867
0.0867
0.0667
0.0667
0.0417
0.04
-0.0267
-0.0317
-0.1017
-0.1017
-0.0283
-0.0233
0.0667
0.07
0.1283
0.13
0.1167
0.1167
0.09
0.0883
0.0683
0.0683
0.0717
0.0717
0.0767
0.0783
0.075
0.0767
0.0683
0.0683
0.05
0.0483
0.035
0.0333
0.0267
0.0267
0.0333
0.0333
0.0417
0.0433
0.0483
0.05
0.0517
0.0517
0.0467
0.0483
0.0517
0.05
0.0567
0.0567
0.0683
0.0667
0.0717
0.0717
0.065
0.065
0.0583
0.0583
0.06
0.06
0.0633
0.0633
0.0617
0.0633
0.0617
0.0617
0.0633
0.065
0.0617
0.0633
0.06
0.0617
0.065
0.065
0.0683
0.0683
0.065
0.0633
0.0583
0.0583
0.0517
0.0533
0.05
0.05
0.0483
0.0467
0.0483
0.0483
0.045
0.0483
0.0517
0.0517
0.055
0.055
0.0533
0.0517
0.055
0.055
0.0517
0.0533
0.05
0.0517
0.045
0.045
0.035
0.035
0.03
0.0283
0.03
0.0283
0.0317
0.0317
0.03
0.03
0.0333
0.035
0.0317
0.0317
0.0367
0.0333
0.0383
0.0383
0.04
0.0383
0.0333
0.0317
0.0433
0.045
0.095
0.0983
0.1383
0.0917
-0.0717
-0.0667
-0.0333
-0.0317
-0.005
-0.005
0.02
0.0217
0.055
0.0567
0.1133
0.115
0.2017
0.195
0.2483
0.2417
0.0167
0.0217
0.1617
0.1433
0.175
0.18
0.2267
0.2283
0.2
0.1967
0.1133
0.11
0.02
0.0167
-0.0533
-0.055
-0.0917
-0.0933
-0.1117
-0.1133
-0.1183
-0.12
-0.1233
-0.1233
-0.13
-0.13
-0.1233
-0.1233
-0.12
-0.1183
-0.1133
-0.1117
-0.105
-0.105
-0.0933
-0.0933
-0.0833
-0.0833
-0.07
0.1
-0.0683
-0.06
-0.06
-0.0467
-0.0467
-0.0383
-0.0383
-0.0317
-0.0317
-0.02
-0.02
-0.01
-0.0117
-0.0067
-0.0067
-0.0033
-0.0033
-0.01
-0.0117
-0.015
-0.0167
-0.0117
-0.0133
-0.0083
-0.01
-0.0067
-0.0083
-0.015
-0.0133
-0.0183
-0.0167
-0.0217
-0.0217
-0.0267
-0.0283
-0.035
-0.035
-0.0433
-0.0433
-0.0517
-0.05
-0.0533
-0.05
-0.0533
-0.05
-0.0433
-0.0433
-0.0367
-0.0367
-0.0283
-0.0283
-0.0367
-0.0367
-0.045
-0.0467
-0.0533
-0.0517
-0.0567
-0.0567
-0.0517
-0.0517
-0.0383
-0.0367
-0.02
-0.02
0
0
0.005
0.0017
-0.0317
-0.0333
-0.085
-0.095
-0.0683
-0.0633
0.0067
0.0133
0.0033
0.0017
-0.0183
-0.0183
-0.015
-0.0167
-0.0283
-0.03
-0.0383
-0.0367
-0.0467
-0.045
-0.05
-0.0483
-0.0517
-0.0517
-0.055
-0.055
-0.0567
-0.0583
-0.055
-0.055
-0.0517
-0.0517
-0.055
-0.0517
-0.0533
-0.0517
-0.05
-0.0517
-0.0533
-0.055
-0.06
-0.06
-0.0633
-0.0633
-0.0717
-0.07
-0.075
-0.075
-0.0817
-0.0833
-0.0883
-0.0883
-0.095
-0.0933
-0.09
-0.09
-0.0933
-0.0917
-0.0967
-0.095
-0.0933
-0.0917
-0.0983
-0.0983
-0.0933
-0.0967
-0.0917
-0.0917
-0.085
-0.0867
-0.0783
-0.0767
-0.0517
-0.05
-0.0067
-0.0633
0.1333
0.2267
-0.035
0.2483
-0.2117
-0.225
-0.3317
-0.3333
-0.255
-0.2517
-0.1917
-0.1817
-0.195
-0.1967
-0.2667
-0.27
-0.3167
-0.31
-0.2133
-0.2067
-0.1067
-0.1033
-0.0433
-0.0417
-0.06
-0.0617
-0.095
-0.0967
-0.1117
-0.1117
-0.115
-0.115
-0.1133
-0.1133
-0.1183
-0.12
-0.1167
-0.1183
-0.1233
-0.1217
-0.1183
-0.1183
-0.115
-0.115
-0.1083
-0.11
-0.1017
-0.1017
-0.0867
-0.085
-0.08
-0.08
-0.085
-0.085
-0.0867
-0.0833
-0.085
-0.0833
-0.0917
-0.09
-0.0983
-0.0983
-0.1033
-0.1
-0.1033
-0.105
-0.1017
-0.1017
-0.0967
-0.095
-0.0983
-0.0967
-0.1017
-0.1
-0.105
-0.1
-0.1267
-0.1283
-0.2167
-0.2167
-0.1333
-0.1267
-0.0217
-0.0183
0.0067
0.0067
-0.0117
-0.0117
-0.0317
-0.0317
-0.0433
-0.0433
-0.0483
-0.0483
-0.0517
-0.0517
-0.055
-0.055
-0.0583
-0.0583
-0.0533
-0.0567
-0.0533
-0.0533
-0.045
-0.0433
-0.0367
-0.0367
-0.035
-0.0383
-0.0517
-0.0517
-0.065
-0.065
-0.0733
-0.075
-0.0717
-0.0717
-0.0567
-0.0567
-0.04
-0.0383
-0.02
-0.0183
-0.005
-0.005
0.0017
0
0.0033
0.0017
0.005
0.0033
0.0117
0.0133
0.025
0.0217
0.025
0.0217
0.0117
0.01
-0.0067
-0.0083
-0.02
-0.02
-0.0283
-0.0283
-0.0233
-0.0233
-0.0167
-0.015
-0.0117
-0.01
0.005
0.005
0.0167
0.0183
0.0217
0.0217
0.02
0.02
0.0167
0.015
0.0183
0.0167
0.0233
0.0233
0.03
0.03
0.0317
0.0317
0.0267
0.0267
0.0233
0.025
0.0283
0.0283
0.03
0.0317
0.0283
0.0283
0.025
0.0267
0.0317
0.0317
0.0367
0.0367
0.05
0.05
0.065
0.0633
0.0683
0.0667
0.0633
0.0633
0.0667
0.065
0.07
0.07
0.0817
0.0833
0.0933
0.0933
0.0967
0.095
0.0933
0.0933
0.0883
0.09
0.085
0.085
0.0817
0.0817
0.08
0.0783
0.0833
0.0817
0.08
0.0783
0.075
0.0767
0.0733
0.0733
0.08
0.08
0.0917
0.0917
0.0967
0.095
0.0983
0.095
0.1017
0.1033
0.12
0.1217
0.175
0.2167
0.1017
0.0833
0.0083
0.0167
0.0533
0.055
0.0783
0.0783
0.0883
0.09
0.095
0.0933
0.1
0.0983
0.1083
0.11
0.1067
0.1117
0.12
0.12
0.1233
0.12
0.1233
0.1217
0.12
0.1217
0.1283
0.1283
0.1383
0.1383
0.1567
0.1567
0.1783
0.18
0.22
0.2217
0.2783
0.26
0.3133
0.19
0.34
0.3517
0.125
0.1817
0.27
0.2717
0.2933
0.28
0.2117
0.2083
0.1133
0.11
0.035
0.0317
-0.0017
-0.0017
-0.0133
-0.0133
-0.0217
-0.02
-0.015
-0.0167
-0.01
-0.01
-0.0317
-0.035
-0.0883
-0.09
-0.1133
-0.105
-0.025
-0.0217
0.0033
0.005
0.0033
0.0017
0.0267
0.0267
0.0417
0.0367
0.0417
0.0417
0.05
0.05
0.0567
0.0567
0.0633
0.0617
0.0567
0.0567
0.0517
0.0533
0.055
0.0567
0.0533
0.0533
0.04
0.04
0.03
0.0333
0.0367
0.0367
0.04
0.04
0.045
0.045
0.0383
0.0367
0.0267
0.0267
0.0233
0.0267
0.0417
0.0417
0.06
0.0617
0.08
0.08
0.095
0.095
0.1083
0.1083
0.1167
0.1183
0.1317
0.1333
0.1417
0.1333
0.0617
0.0533
-0.1083
-0.1067
0.4183
0.19
0.46
0.4417
-0.02
0
-0.0983
-0.0883
-0.0317
-0.0317
-0.01
-0.01
-0.0017
-0.0017
0.005
0.0033
0.0117
0.0117
0.0167
0.0167
0.0217
0.0217
0.0233
0.0233
0.0267
0.0267
0.025
0.0267
0.03
0.03
0.0267
0.0267
0.0317
0.03
0.0267
0.0283
0.0217
0.0217
0.0233
0.0217
0.025
0.0233
0.0267
0.025
0.0283
0.0283
0.03
0.0283
0.0267
0.0267
0.0233
0.0233
0.0267
0.025
0.0283
0.0267
0.03
0.0283
0.0317
0.0317
0.0367
0.0367
0.0333
0.035
0.0333
0.035
0.0317
0.0317
0.0333
0.0333
0.035
0.0317
0.0383
0.0383
0.035
0.0367
0.0333
0.0333
0.03
0.0317
0.0283
0.03
0.0233
0.0233
0.0167
0.0167
0.005
0.005
0
0.0017
0.0033
0.0033
0
0
-0.0017
-0.0033
0.0017
0.0017
-0.0033
-0.0033
0
-0.0017
0
0
0.0083
0.0067
0.0167
0.0167
0.03
0.03
0.04
0.0383
0.0333
0.0333
0.03
0.03
0.0333
0.0333
0.0317
0.03
0.0333
0.0317
0.035
0.035
0.0433
0.0433
0.05
0.0517
0.0467
0.0467
0.0283
0.0283
0.0033
0.0033
-0.0117
-0.0117
-0.015
-0.0133
-0.0033
-0.0033
0.0033
0.0017
0.0067
0.0083
0.0033
0.005
0
0
-0.01
-0.0033
-0.0117
-0.0117
-0.0833
-0.0867
-0.1233
-0.095
0.0167
0.0217
0.0867
0.09
0.085
0.0833
0.07
0.07
0.06
0.0583
0.0467
0.0467
0.025
0.025
0.0067
0.005
-0.005
-0.0083
-0.0033
-0.0033
0.0117
0.0117
0.025
0.025
0.03
0.03
0.0267
0.0267
0.0333
0.0317
0.0383
0.0367
0.04
0.0367
0.0417
0.0433
0.04
0.04
0.025
0.0233
0
0
-0.0133
-0.015
-0.0133
-0.015
0
0.0017
0.0233
0.0233
0.0283
0.0267
0.02
0.02
0.015
0.015
0.0117
0.0117
0.0133
0.0117
0.0083
0.005
0.0083
0.0083
0.005
0.0067
0.0083
0.0083
0.0117
0.0083
0.01
0.0083
0.01
0.01
0.0133
0.0133
0.015
0.015
0.01
0.0117
0.015
0.015
0.0217
0.02
0.025
0.0233
0.0167
0.0167
0.0083
0.0067
0
0
0.0033
0.0033
0.0167
0.0167
0.025
0.025
0.0317
0.0317
0.0417
0.0417
0.0917
0.115
-0.0767
-0.0817
-0.0567
-0.0533
-0.015
-0.015
0.0067
0.0067
0.0117
0.0133
0.0117
0.0117
0.0083
0.0083
0.0117
0.01
0.0133
0.0133
0.0117
0.0117
0.0083
0.0083
-0.005
-0.005
-0.01
-0.01
-0.005
-0.0033
0.0067
0.0067
0.0183
0.0183
0.0117
0.0117
0.01
0.0083
0
0.0017
-0.0033
-0.0033
-0.0017
-0.005
-0.01
-0.0083
-0.015
-0.0133
-0.015
-0.015
-0.0133
-0.015
-0.0167
-0.015
-0.0183
-0.02
-0.0167
-0.0167
-0.02
-0.02
-0.0167
-0.0183
-0.0117
-0.01
-0.005
-0.005
-0.025
-0.025
-0.0717
-0.0733
-0.0933
-0.085
-0.0033
0.0017
0.03
0.0267
0.0033
0.0017
0.0117
0.0133
0.0267
0.0267
0.0183
0.0217
0.0267
0.0283
0.02
0.0183
-0.0283
-0.0317
-0.105
-0.105
-0.035
-0.03
0.1217
0.1283
0.2767
0.27
0.3217
0.31
0.0967
0.1083
0.295
0.2433
0.2783
0.28
0.305
0.305
0.15
0.14
0.4367
0.2733
0.02
0.2817
-0.2617
-0.265
-0.3967
-0.3833
-0.2933
-0.2917
-0.2383
-0.2367
-0.2017
-0.2017
-0.175
-0.175
-0.155
-0.155
-0.135
-0.1333
-0.1133
-0.1133
-0.1
-0.1
-0.0933
-0.0933
-0.0817
-0.0833
-0.0783
-0.0817
-0.0883
-0.0883
-0.095
-0.095
-0.0867
-0.0867
-0.0817
-0.0817
-0.0683
-0.0683
-0.0533
-0.0533
-0.0417
-0.0417
-0.035
-0.035
-0.0367
-0.035
-0.0317
-0.0317
-0.03
-0.03
-0.025
-0.0267
-0.0233
-0.0217
-0.015
-0.015
-0.0117
-0.0117
-0.0133
-0.0133
-0.0167
-0.015
-0.0167
-0.015
-0.0067
-0.0083
0.0017
0.0017
0.005
0.005
0.0067
0.0067
0.0033
0.0033
0
0
0.005
0.0033
0.0117
0.0117
0.0167
0.0183
0.015
0.015
0.0167
0.0167
0.0083
0.0083
0.0017
0.0017
-0.005
-0.005
-0.0033
-0.0033
-0.0067
-0.005
-0.0117
-0.0117
-0.01
-0.01
-0.015
-0.0133
-0.0167
-0.015
-0.0217
-0.02
-0.01
-0.01
-0.0017
-0.0017
0.0017
0.0017
-0.0017
-0.0033
-0.0083
-0.0117
-0.0067
0.1
-0.0067
-0.01
-0.0083
-0.0133
-0.0133
-0.0233
-0.0233
-0.0333
-0.0333
-0.0383
-0.0383
-0.0417
-0.0433
-0.0383
-0.04
-0.0283
-0.0267
-0.0117
-0.0117
0.0083
0.0083
0.0167
0.0117
0.015
0.0167
0.03
0.03
0.0483
0.05
0.0583
0.0567
0.04
0.0383
0.0083
0.0067
-0.0133
-0.015
-0.0183
-0.0183
-0.0167
-0.015
-0.005
-0.005
0
-0.0017
0.01
0.01
0.02
0.02
0.03
0.0267
-0.035
-0.04
-0.0933
-0.075
0.0333
0.0367
0.0983
0.1
0.0867
0.085
0.0617
0.06
0.0433
0.0417
0.035
0.035
0.0333
0.0367
0.0333
0.0317
0.0283
0.0283
0.02
0.0183
0.015
0.015
0.01
0.01
0.0133
0.015
0.0217
0.0233
0.03
0.0267
0.0333
0.0317
0.035
0.035
0.0317
0.03
0.0317
0.0317
0.0283
0.03
0.0267
0.0283
0.025
0.0267
0.0217
0.0217
0.015
0.0167
0.0083
0.0083
0.0017
0
0.0033
0.0033
0
0.0033
0
0.0017
-0.0017
-0.0033
0.0017
0.0017
0.005
0.0017
0.01
0.0083
0.0117
0.0117
0.0167
0.015
0.02
0.02
0.0183
0.0183
0.0283
0.03
0.0417
0.0433
0.0517
0.0533
0.09
0.0933
0.1483
0.14
-0.0583
-0.0583
-0.0233
-0.0217
0.0067
0.0083
0.03
0.03
0.0383
0.04
0.0433
0.0433
0.0367
0.0367
0.0167
0.015
-0.0033
-0.005
-0.015
-0.0183
-0.0133
-0.0133
-0.0067
-0.005
-0.0017
-0.0017
0.0083
0.0083
0.0167
0.0167
0.0217
0.0183
0.0217
0.0183
0.0217
0.0217
0.02
0.0217
0.0233
0.0217
0.0283
0.0267
0.03
0.03
0.0367
0.0367
0.04
0.0383
0.0367
0.0367
0.0333
0.035
0.0267
0.0267
0.025
0.0233
0.0167
0.0167
0.01
0.01
-0.0167
-0.0183
-0.095
-0.1
-0.145
-0.135
-0.035
-0.03
0.065
0.0683
0.1217
0.12
0.085
0.0817
0.005
0.0017
-0.045
-0.05
-0.005
-0.0017
0.06
0.0633
0.055
0.0533
0.04
0.0417
0.0383
0.0367
0.02
0.02
0.0133
0.0133
0.01
0.01
0.0117
0.01
0.0117
0.0083
0.0117
0.0117
0.0217
0.0217
0.03
0.03
0.0333
0.0317
0.025
0.0267
0.02
0.02
0.0233
0.0233
0.0267
0.0267
0.03
0.0317
0.0383
0.0383
0.0683
0.07
0.105
0.105
0.0133
0.0117
0.3917
0.05
0.2717
0.3517
-0.1433
-0.145
-0.2483
-0.2367
-0.155
-0.1517
-0.105
-0.105
-0.0883
-0.0883
-0.075
-0.0767
-0.0633
-0.0633
-0.0483
-0.0483
-0.0383
-0.0383
-0.03
-0.0317
-0.0267
-0.025
-0.0267
-0.025
-0.015
-0.015
-0.01
-0.01
-0.0067
-0.005
-0.0083
-0.0083
-0.0033
-0.0033
0.0017
0.0033
0
0
-0.0033
-0.0033
-0.01
-0.01
-0.0167
-0.0167
-0.0283
-0.0283
-0.0367
-0.0367
-0.0433
-0.0417
-0.0433
-0.0417
-0.0433
-0.0417
-0.045
-0.0417
-0.0467
-0.0467
-0.0483
-0.0517
-0.0483
-0.05
-0.0483
-0.05
-0.0467
-0.05
-0.045
-0.0433
-0.03
-0.0283
-0.0217
-0.0217
-0.025
-0.0217
-0.0233
-0.0217
-0.0233
-0.0217
-0.0067
-0.0067
0.01
0.01
0.0333
0.0367
0.0817
0.0867
0.1217
0.13
-0.0517
-0.105
0.0517
0.0633
0.22
0.175
0.16
0.16
0.1183
0.1167
0.0317
0.0267
-0.06
-0.0633
-0.1283
-0.13
-0.1667
-0.1683
-0.18
-0.1817
-0.185
-0.1817
-0.1767
-0.1783
-0.1683
-0.1683
-0.1633
-0.1633
-0.16
-0.16
-0.1567
-0.1567
-0.1483
-0.1483
-0.145
-0.1467
-0.15
-0.1517
-0.145
-0.145
-0.1233
-0.1217
-0.1033
-0.1017
-0.0783
-0.0783
-0.0483
-0.0467
-0.0383
-0.0367
-0.045
-0.045
-0.06
-0.06
-0.07
-0.07
-0.0717
-0.07
-0.0583
-0.0567
-0.0317
-0.03
-0.0283
-0.03
-0.0417
-0.0417
-0.0533
-0.0533
-0.05
-0.05
-0.0433
-0.0433
-0.035
-0.0367
-0.0267
-0.0267
-0.0233
-0.0217
-0.02
-0.02
-0.0183
-0.0183
-0.015
-0.0167
-0.01
-0.0117
-0.0133
-0.0133
-0.0117
-0.0133
-0.015
-0.0133
-0.0117
-0.01
-0.0117
-0.0117
-0.0133
-0.0133
-0.015
-0.0133
-0.015
-0.0133
-0.0117
-0.015
-0.0117
-0.0133
-0.0083
-0.0083
-0.005
-0.005
-0.0017
-0.0033
0
-0.0017
-0.005
-0.0017
0
-0.0017
0.0017
0.0017
0.0033
0.0033
-0.0017
0
-0.005
-0.0067
-0.01
-0.0017
-0.0233
-0.0267
-0.115
-0.115
-0.0333
-0.0283
0.0817
0.0833
0.1017
0.0983
0.0617
0.06
0.0233
0.02
-0.005
-0.005
-0.02
-0.02
-0.0267
-0.0267
-0.025
-0.0283
-0.02
-0.0183
-0.015
-0.015
-0.02
-0.02
-0.0217
-0.02
-0.015
-0.015
-0.0017
-0.0017
0.0083
0.0067
0.0017
0.0017
-0.0017
-0.0017
-0.0083
-0.005
-0.0083
-0.0033
0.0017
0.0033
0.01
0.01
0.0167
0.0183
0.0217
0.0233
0.0183
0.02
0.015
0.0183
0.0233
0.0267
0.02
0.0183
-0.0033
-0.0067
-0.1867
-0.2283
-0.1233
-0.115
0.0383
0.0433
0.1233
0.1283
0.115
0.1133
0.075
0.0733
0.0333
0.0317
-0.0017
-0.0017
-0.015
-0.0133
-0.0067
-0.0067
0.0017
0.0017
0.0067
0.0067
0.0083
0.0083
0
0
-0.0083
-0.0083
-0.0117
-0.0117
-0.01
-0.0117
-0.0083
-0.0117
-0.0067
-0.0067
-0.015
-0.0167
-0.0583
-0.06
-0.085
-0.0867
-0.0233
-0.02
0.0383
0.0433
0.03
0.03
0.0117
0.0133
0.015
0.015
-0.0017
-0.0033
0
-0.0033
-0.0017
-0.0017
0.005
0.0033
0.0067
0.005
0
0
-0.0067
-0.0067
-0.0133
-0.0133
-0.0167
-0.0167
-0.02
-0.0183
-0.02
-0.0183
-0.02
-0.02
-0.0167
-0.02
-0.0167
-0.0183
-0.02
-0.0183
-0.0167
-0.0183
-0.0167
-0.0167
-0.0183
-0.015
-0.02
-0.0183
-0.0233
-0.0233
-0.025
-0.0233
-0.0267
-0.0267
-0.0233
-0.0233
-0.0267
-0.0233
-0.025
-0.025
-0.0317
-0.0317
-0.0333
-0.0333
-0.035
-0.035
-0.0383
-0.0367
-0.0333
-0.0333
-0.025
-0.025
-0.0183
-0.02
-0.0117
-0.0117
-0.0067
-0.0067
-0.0033
-0.005
0
0
0.0083
0.0067
0.02
0.02
0.0433
0.045
0.08
0.0917
0.02
-0.035
0.2667
0.465
0.14
0.355
-0.1417
-0.1567
-0.2767
-0.2933
-0.225
-0.2217
-0.1533
-0.1517
-0.1183
-0.1167
-0.1083
-0.1083
-0.1017
-0.1033
-0.11
-0.1117
-0.1183
-0.1183
-0.1233
-0.1217
-0.125
-0.125
-0.1183
-0.1183
-0.11
-0.11
-0.1117
-0.1117
-0.115
-0.115
-0.1167
-0.115
-0.1183
-0.12
-0.1167
-0.1167
-0.1083
-0.1083
-0.0933
-0.0933
-0.0617
-0.06
-0.025
-0.025
-0.01
-0.01
-0.005
-0.0067
-0.005
-0.0067
-0.01
-0.0083
-0.0117
-0.0117
-0.0167
-0.0167
-0.0317
-0.0333
-0.0433
-0.0417
-0.045
-0.045
-0.045
-0.0433
-0.0467
-0.0467
-0.0417
-0.0433
-0.035
-0.035
-0.0217
-0.0217
0.0017
0.0033
0.04
0.0417
0.115
0.1
0.1567
0.155
-0.0183
-0.0167
0.2867
0.2817
0.235
0.235
0.2117
0.21
0.13
0.125
0.0033
-0.0017
-0.1117
-0.115
-0.1867
-0.1883
-0.2283
-0.23
-0.2433
-0.245
-0.2517
-0.25
-0.2583
-0.2567
-0.2683
-0.2667
-0.27
-0.2683
-0.255
-0.2533
-0.22
-0.2183
-0.1817
-0.18
-0.1433
-0.1433
-0.1217
-0.1217
-0.1117
-0.1117
-0.1
-0.1
-0.09
-0.09
-0.08
-0.08
-0.0667
-0.0667
-0.06
-0.06
-0.0533
-0.0517
-0.0467
-0.045
-0.0483
-0.0483
-0.0567
-0.055
-0.065
-0.065
-0.0717
-0.07
-0.0633
-0.0633
-0.0483
-0.0483
-0.0333
-0.0333
-0.0167
-0.0167
-0.0083
-0.01
-0.0033
-0.0033
-0.005
-0.005
0.0017
0.0017
0
0
0.0033
0.0017
0.0067
0.005
0.0133
0.0117
0.0167
0.0167
0.02
0.02
0.0217
0.0183
0.0217
0.0217
0.0233
0.0233
0.02
0.02
0.0233
0.02
0.025
0.0233
0.0267
0.025
0.0317
0.03
0.0333
0.03
0.02
0.02
0.0117
0.0117
0.0083
0.01
0.005
0.005
-0.005
-0.0067
-0.0033
-0.0033
0.01
0.01
0.02
0.0217
0.035
0.035
0.0433
0.0433
0.0417
0.0417
0.0483
0.0483
0.0533
0.0533
0.03
0.0283
-0.055
-0.0583
-0.13
-0.1283
-0.0383
-0.0317
0.0883
0.0917
0.1467
0.15
0.0833
0.0767
-0.0217
-0.0183
0.0817
0.0867
0.2217
0.265
0.1233
0.11
0.0367
0.0383
0.0267
0.025
-0.0083
-0.0183
-0.0067
-0.0033
0.0783
0.0817
0.1117
0.1083
0.0917
0.09
0.0933
0.0933
0.0867
0.0867
0.0683
0.0717
0.0667
0.0667
0.0533
0.0533
0.0467
0.0483
0.0417
0.0417
0.0433
0.0417
0.0383
0.04
0.0367
0.0383
0.035
0.035
0.04
0.04
0.0417
0.04
0.0467
0.0467
0.0483
0.0483
0.045
0.0433
0.0467
0.045
0.0417
0.04
0.045
0.0433
0.045
0.0467
0.0433
0.045
0.0417
0.0433
0.04
0.04
0.035
0.0383
0.035
0.0367
0.035
0.0383
0.035
0.0367
0.0333
0.0333
0.0283
0.0267
0.02
0.0183
0.0167
0.0167
0.015
0.0167
0.0183
0.1
0.0167
0.02
0.02
0.0233
0.0217
0.0267
0.0267
0.0317
0.0317
0.035
0.035
0.0417
0.0417
0.0467
0.0483
0.055
0.055
0.065
0.065
0.0733
0.075
0.0933
0.0933
0.125
0.1283
0.1533
0.125
0.0183
0.085
0.5283
0.1367
0.3817
0.3117
-0.1283
-0.1267
-0.2083
-0.185
-0.1
-0.0983
-0.055
-0.0533
-0.035
-0.035
-0.0233
-0.0217
-0.01
-0.01
-0.0017
-0.0017
0.0067
0.0067
0.0133
0.01
0.015
0.0133
0.015
0.0133
0.0167
0.015
0.0167
0.015
0.0167
0.0167
0.02
0.0183
0.0233
0.0233
0.0283
0.03
0.0267
0.0267
0.025
0.0233
0.0217
0.0233
0.0267
0.025
0.0267
0.0267
0.0217
0.0233
0.02
0.02
0.0233
0.0217
0.0267
0.03
0.0233
0.0233
0.0133
0.0133
0.005
0.005
-0.0017
-0.0017
-0.01
-0.01
-0.0267
-0.0283
-0.0333
-0.0333
-0.0267
-0.0267
-0.0117
-0.0117
0.0017
0.0033
0.0133
0.0133
0.0167
0.0133
0.005
0.005
-0.0017
-0.0017
0.0033
0.0033
0.0117
0.0117
0.02
0.02
0.0217
0.02
0.0167
0.0183
0.0133
0.0133
0.0083
0.0083
-0.0017
-0.0017
-0.015
-0.015
-0.02
-0.0183
-0.0217
-0.0233
-0.0267
-0.025
-0.015
-0.015
-0.0017
0
0.015
0.015
0.0283
0.0283
0.045
0.045
0.0733
0.0733
0.0983
0.1
0.125
0.125
0.16
0.18
0.14
0.1817
0.075
0.035
0.1317
0.16
0.5233
0.4217
0.3067
0.3033
0.1933
0.19
0.07
0.065
-0.0517
-0.0567
-0.1467
-0.15
-0.1967
-0.1967
-0.22
-0.22
-0.2233
-0.2217
-0.2083
-0.2067
-0.185
-0.1833
-0.1583
-0.1583
-0.1267
-0.125
-0.1033
-0.1033
-0.09
-0.0883
-0.0767
-0.075
-0.07
-0.0717
-0.0683
-0.0683
-0.0633
-0.0683
-0.065
-0.065
-0.055
-0.055
-0.0483
-0.0483
-0.0333
-0.0333
-0.02
-0.0183
-0.015
-0.0133
-0.0167
-0.0167
-0.0067
-0.0067
0.0017
0.0017
0.0117
0.0117
0.0217
0.0217
0.0317
0.035
0.0133
0.01
-0.085
-0.09
-0.12
-0.1067
0.0033
0.01
0.12
0.1233
0.19
0.19
0.165
0.1633
0.1233
0.1233
0.0983
0.0967
0.0867
0.0867
0.08
0.0783
0.0733
0.0733
0.0683
0.0683
0.0717
0.07
0.065
0.065
0.0683
0.0667
0.07
0.0683
0.07
0.0667
0.07
0.0667
0.0717
0.07
0.0517
0.05
0.0033
0
-0.0317
-0.0333
0.015
0.0183
0.0967
0.0983
0.1067
0.1033
0.0933
0.0933
0.0983
0.0933
0.0683
0.0667
0.055
0.055
0.05
0.05
0.0467
0.0483
0.05
0.0467
0.05
0.05
0.065
0.065
0.12
0.1467
0.025
0.0117
-0.0467
-0.035
0.01
0.0117
0.0367
0.0367
0.0483
0.0483
0.05
0.05
0.045
0.045
0.04
0.04
0.03
0.03
0.0183
0.0167
0.01
0.0133
-0.04
-0.045
-0.11
-0.0967
0.0033
0.01
0.1033
0.11
0.1033
0.1033
0.0617
0.0583
0.0183
0.0167
0.0017
0.0017
-0.01
-0.01
-0.0117
-0.0083
-0.005
-0.005
0
0
0.0033
0.0017
0.005
0.005
0.0083
0.0067
0.01
0.0117
0.0067
0.0067
0.005
0.0067
0.0017
0.0017
-0.0033
-0.0017
-0.005
-0.005
-0.0033
-0.0033
0
0
0.0033
0.0017
0.005
0.005
0.0083
0.0067
0.01
0.01
0.005
0.005
-0.0033
-0.005
-0.0117
-0.01
-0.0133
-0.0133
-0.0167
-0.0167
-0.015
-0.015
-0.0167
-0.0133
-0.0167
-0.015
-0.0183
-0.0183
-0.0167
-0.0167
-0.0183
-0.0167
-0.0183
-0.0167
-0.02
-0.02
-0.0233
-0.0233
-0.02
-0.02
-0.0233
-0.02
-0.025
-0.02
-0.0183
-0.0183
-0.0167
-0.0167
-0.0133
-0.0133
-0.0083
-0.01
-0.0133
-0.0117
-0.0167
-0.0167
-0.025
-0.0217
-0.0267
-0.0267
-0.03
-0.03
-0.0233
-0.0217
-0.015
-0.015
-0.0067
-0.0067
0.005
0.0067
0.0183
0.02
0.0283
0.0283
0.0333
0.0317
0.0367
0.035
0.0467
0.0483
0.0883
0.1
0.0283
-0.015
0.3367
0.4733
0.0617
0.3233
-0.0483
-0.075
-0.2633
-0.2767
-0.2083
-0.2033
-0.1317
-0.13
-0.1017
-0.1017
-0.0917
-0.0933
-0.095
-0.0917
-0.085
-0.085
-0.075
-0.075
-0.08
-0.0783
-0.0867
-0.0867
-0.0917
-0.0933
-0.0883
-0.0883
-0.07
-0.07
-0.0483
-0.0467
-0.0383
-0.0383
-0.0333
-0.035
-0.0367
-0.035
-0.0383
-0.0383
-0.0467
-0.045
-0.05
-0.0467
-0.05
-0.0467
-0.03
-0.03
-0.0233
-0.0233
-0.0183
-0.02
-0.0167
-0.0183
-0.015
-0.015
-0.0017
-0.0017
0.005
0.005
0.015
0.0167
0.0333
0.0333
0.0433
0.0433
0.0367
0.0383
0.0317
0.0283
0.0317
0.0283
0.015
0.015
0
0.0017
-0.0017
-0.0017
-0.0033
-0.0033
0.0017
0.0017
0.0083
0.0067
-0.0017
0
-0.005
-0.005
-0.0117
-0.0117
-0.01
-0.0117
-0.0083
-0.0117
-0.0067
-0.0067
-0.01
-0.0117
-0.0083
-0.0083
0.0033
0.0033
0.02
0.0217
0.0417
0.0417
0.0683
0.0683
0.0867
0.085
0.03
0.025
-0.07
-0.0967
-0.0717
-0.0683
0.0617
0.0667
0.1517
0.1533
0.185
0.1833
0.1667
0.1667
0.16
0.1617
0.1733
0.1733
0.2067
0.2083
0.2583
0.2333
0.305
0.27
0.5183
0.515
0.2917
0.3833
0.41
0.3917
0.355
0.3517
0.2417
0.2367
0.105
0.1
-0.005
-0.01
-0.0817
-0.0833
-0.1233
-0.125
-0.1317
-0.1317
-0.125
-0.125
-0.1183
-0.1167
-0.1033
-0.1017
-0.0883
-0.0867
-0.0717
-0.0717
-0.0533
-0.0533
-0.04
-0.04
-0.0567
-0.0567
-0.0817
-0.0867
-0.055
-0.0517
0.0483
0.05
0.075
0.075
0.065
0.0667
0.075
0.0783
0.0733
0.0733
0.0683
0.07
0.0733
0.0717
0.0667
0.07
0.0733
0.075
0.0867
0.0867
0.09
0.0883
0.09
0.0883
0.0917
0.0867
0.08
0.08
0.0733
0.0733
0.07
0.0717
0.0767
0.0767
0.0867
0.0867
0.125
0.1283
0.18
0.1783
-0.015
-0.015
0.0217
0.025
0.0633
0.065
0.085
0.085
0.0967
0.0967
0.1017
0.1017
0.105
0.1017
0.105
0.1033
0.105
0.1033
0.105
0.1033
0.1
0.1017
0.0983
0.1
0.0983
0.1
0.095
0.0967
0.0917
0.0933
0.09
0.0933
0.0883
0.09
0.0867
0.0867
0.0817
0.0817
0.0783
0.08
0.075
0.0767
0.075
0.075
0.08
0.0767
0.0833
0.0833
0.0883
0.0883
0.0933
0.09
0.095
0.095
0.0967
0.0933
0.0983
0.0983
0.0933
0.095
0.0917
0.0917
0.0933
0.09
0.0917
0.0883
0.09
0.0867
0.09
0.0883
0.09
0.09
0.0867
0.0883
0.085
0.085
0.0833
0.0833
0.08
0.08
0.0783
0.0767
0.0717
0.0717
0.0667
0.07
0.065
0.0667
0.0633
0.0667
0.0633
0.065
0.0667
0.065
0.0667
0.0667
0.07
0.07
0.0683
0.07
0.0683
0.07
0.065
0.0667
0.0617
0.0633
0.06
0.0583
0.0683
0.0683
0.0367
0.0333
-0.03
-0.0217
0.07
0.075
0.1617
0.1633
0.17
0.1617
0.1283
0.1267
0.1
0.1
0.0817
0.0817
0.075
0.0733
0.0683
0.0683
0.065
0.07
0.0667
0.0683
0.0717
0.0733
0.0883
0.09
0.13
0.1383
0.0583
-0.0033
0.3083
0.5483
0.215
0.3967
-0.04
-0.0567
-0.155
-0.18
-0.1233
-0.12
-0.0533
-0.0517
-0.02
-0.02
-0.005
-0.005
0.0067
0.0067
0.0117
0.0117
0.0083
0.0117
0.0133
0.0117
0.01
0.0117
0.0083
0.0083
0.0117
0.01
0.0167
0.0167
0.0233
0.0217
0.0267
0.0267
0.035
0.035
0.0467
0.0467
0.0517
0.05
0.055
0.055
0.0617
0.06
0.0467
0.0467
0.0283
0.0267
0.0083
0.0067
-0.0033
-0.0067
-0.0033
-0.005
0.0017
0.0033
0.0083
0.01
0.0167
0.0167
0.0233
0.0233
0.0217
0.0217
0.0233
0.0233
0.0267
0.0267
0.0317
0.03
0.0333
0.03
0.0283
0.0283
0.0267
0.0267
0.0233
0.025
0.0283
0.0267
0.03
0.0267
0.0317
0.0283
0.025
0.025
0.0183
0.0183
0.0133
0.015
0.01
0.0117
0.015
0.0167
0.0233
0.0233
0.03
0.03
0.0367
0.0367
0.04
0.0367
0.04
0.0383
0.0367
0.035
0.0283
0.0283
0.0317
0.0283
0.0333
0.0333
0.035
0.0367
0.0317
0.0317
0.0233
0.0217
0.015
0.015
0.0033
0.005
-0.0017
-0.0017
0.0017
0
0.0083
0.0083
0.0133
0.0133
0.0183
0.0217
0.0167
0.0183
-0.0017
-0.0033
-0.075
-0.08
-0.145
-0.1433
-0.065
-0.0583
0.0467
0.05
0.1183
0.1217
0.1067
0.105
0.065
0.0633
0.0333
0.0317
0.0183
0.0183
0.0167
0.0183
0.015
0.0167
0.02
0.02
0.015
0.0133
0
0
-0.0067
-0.0067
-0.01
-0.01
-0.0083
-0.0117
-0.0083
-0.01
-0.0133
-0.0133
-0.0083
-0.0083
-0.0017
-0.0017
0.0033
0.0033
-0.0067
-0.0083
-0.03
-0.03
-0.055
-0.0567
-0.0733
-0.0767
-0.0683
-0.0667
-0.0433
-0.0433
-0.0167
0.1
-0.015
-0.0017
0
0.01
0.01
0.0267
0.0267
0.02
0.02
-0.0167
-0.0183
-0.0767
-0.0783
-0.0967
-0.0933
-0.0083
-0.0033
0.0583
0.06
0.0433
0.0433
0.0317
0.0317
0.0117
0.0117
-0.0083
-0.0083
-0.015
-0.015
-0.0233
-0.0233
-0.0183
-0.0167
-0.0083
-0.0067
0.0033
0.005
0.0233
0.025
0.05
0.0517
0.0917
0.095
0.1633
0.135
0.1717
0.1567
-0.0067
0
0.35
0.435
0.3617
0.3617
0.32
0.31
0.0217
0.0167
-0.065
-0.0683
-0.135
-0.1383
-0.185
-0.185
-0.215
-0.2167
-0.2283
-0.23
-0.2267
-0.2283
-0.2183
-0.2183
-0.2067
-0.2067
-0.1917
-0.1917
-0.1767
-0.1767
-0.1617
-0.1617
-0.15
-0.15
-0.1333
-0.1333
-0.1183
-0.12
-0.1067
-0.1067
-0.1
-0.1
-0.0967
-0.0983
-0.0967
-0.0983
-0.095
-0.0967
-0.0917
-0.0933
-0.0883
-0.0867
-0.08
-0.0783
-0.0817
-0.08
-0.0833
-0.08
-0.075
-0.0767
-0.08
-0.08
-0.0917
-0.0933
-0.1
-0.0967
-0.075
-0.0733
-0.045
-0.0433
-0.01
-0.0083
0.0067
0.0067
-0.005
-0.0067
-0.03
-0.03
-0.04
-0.04
-0.0417
-0.0417
-0.0383
-0.04
-0.0333
-0.0333
-0.0283
-0.0283
-0.0217
-0.0233
-0.015
-0.015
-0.0083
-0.0083
0
0
0.0233
0.025
0.0517
0.055
-0.0467
-0.0533
0.3383
0.2717
-0.0067
0.1883
-0.3217
-0.31
-0.3467
-0.3067
-0.1267
-0.12
-0.0583
-0.0533
-0.0617
-0.0617
-0.07
-0.0717
-0.0667
-0.0667
-0.0567
-0.0583
-0.0517
-0.0483
-0.0517
-0.0483
-0.045
-0.0467
-0.0417
-0.0417
-0.0383
-0.0383
-0.035
-0.0367
-0.0333
-0.035
-0.03
-0.03
-0.0267
-0.0267
-0.0333
-0.0333
-0.0383
-0.0383
-0.0467
-0.045
-0.05
-0.05
-0.055
-0.055
-0.06
-0.0583
-0.0617
-0.06
-0.0633
-0.0617
-0.0567
-0.0567
-0.0483
-0.0467
-0.0383
-0.0383
-0.0417
-0.04
-0.035
-0.0383
-0.035
-0.035
-0.0317
-0.0317
-0.03
-0.03
-0.0367
-0.035
-0.0417
-0.0417
-0.055
-0.055
-0.065
-0.065
-0.0767
-0.0767
-0.0817
-0.0817
-0.0783
-0.0783
-0.0717
-0.07
-0.055
-0.055
-0.05
-0.05
-0.0467
-0.0483
-0.045
-0.0467
-0.05
-0.0483
-0.045
-0.0483
-0.035
-0.035
-0.025
-0.0283
-0.0917
-0.095
-0.1817
-0.1817
-0.1483
-0.145
-0.0233
-0.02
0.0583
0.06
0.0667
0.0617
0.0283
0.0267
0.0033
0.0017
-0.0083
-0.0083
-0.0117
-0.0083
-0.0067
-0.0083
-0.0117
-0.0083
-0.0117
-0.01
-0.015
-0.0133
-0.0183
-0.0167
-0.0233
-0.0217
-0.0267
-0.025
-0.0283
-0.0283
-0.0267
-0.0267
-0.0283
-0.0283
-0.0317
-0.03
-0.035
-0.035
-0.04
-0.04
-0.045
-0.0433
-0.0467
-0.045
-0.0483
-0.045
-0.0517
-0.0533
-0.05
-0.0483
-0.0517
-0.0517
-0.0467
-0.0483
-0.045
-0.045
-0.0367
-0.0383
-0.0317
-0.03
-0.025
-0.0233
-0.0183
-0.02
-0.0233
-0.025
-0.0267
-0.025
-0.0283
-0.0283
-0.025
-0.0233
-0.02
-0.02
-0.0167
-0.015
-0.0117
-0.015
-0.01
-0.01
-0.015
-0.015
-0.0117
-0.0117
-0.015
-0.0133
-0.02
-0.0167
-0.0233
-0.0233
-0.0267
-0.0283
-0.025
-0.025
-0.03
-0.0283
-0.03
-0.03
-0.0283
-0.0283
-0.025
-0.025
-0.0217
-0.0217
-0.0117
-0.0117
-0.0017
-0.0033
0.0033
0.0033
0.0067
0.0067
0.0017
0.0033
-0.0017
0
-0.0033
0
0.0017
0.0017
0.0067
0.005
0.0083
0.0083
0.005
0.0067
0.0083
0.0083
0.005
0.0067
0.0083
0.0083
0.01
0.01
0.0067
0.0083
0.005
0.0067
0.005
0.0067
0.0083
0.0083
0.0117
0.0133
0.01
0.015
0.0183
0.0183
0.0267
0.0267
0.0283
0.03
0.0333
0.0317
0.0233
0.0217
0.0033
0.0033
-0.01
-0.0117
-0.0083
-0.01
0.0017
0.0033
0.0217
0.0233
0.0383
0.0383
0.0417
0.04
0.0183
0.0183
-0.0017
-0.0017
-0.0117
-0.0133
-0.005
-0.005
0.0067
0.0067
0.0083
0.0083
0.01
0.0117
0.02
0.02
0.035
0.035
0.0517
0.0533
0.045
0.045
0.0033
0
-0.06
-0.0617
-0.0783
-0.0683
0.015
0.0183
0.0533
0.0517
0.0433
0.04
0.06
0.0617
0.0683
0.0667
0.0517
0.0533
0.0583
0.0583
0.0633
0.0633
0.07
0.07
0.0617
0.06
0.0483
0.0467
0.05
0.05
0.0667
0.0683
0.08
0.08
0.095
0.095
0.1
0.1
0.0883
0.0883
0.0783
0.0817
0.0867
0.0867
0.1033
0.1033
0.13
0.1317
0.1667
0.1683
0.235
0.2617
0.0933
0.0817
0.1217
0.125
0.19
0.1917
0.2733
0.2617
0.3317
0.33
0.2
0.2067
0.4
0.3
0.3717
0.3717
0.3883
0.3867
0.35
0.3483
0.28
0.2767
0.1133
0.0533
0.3583
0.3967
0.06
0.3017
-0.11
-0.125
-0.26
-0.2617
-0.1783
-0.175
-0.1033
-0.1017
-0.065
-0.0633
-0.0333
-0.0317
-0.0067
-0.005
0.0217
0.0217
0.0467
0.0467
0.0617
0.0617
0.0767
0.0783
0.0867
0.0867
0.0883
0.085
0.0883
0.0883
0.1
0.1
0.1133
0.1133
0.1267
0.1283
0.1383
0.1417
0.1233
0.1217
0.05
0.0433
-0.02
-0.0183
0.055
0.0617
0.1583
0.1617
0.2183
0.225
0.1883
0.1833
0.0683
0.065
0.1117
0.115
0.195
0.1983
0.2117
0.2083
0.1783
0.1767
0.1533
0.1517
0.145
0.1467
0.1433
0.145
0.1367
0.1367
0.1233
0.1233
0.1067
0.1067
0.0967
0.095
0.09
0.0917
0.0933
0.09
0.0933
0.0933
0.09
0.09
0.0883
0.09
0.0867
0.0883
0.0833
0.0833
0.0733
0.075
0.07
0.07
0.0733
0.07
0.065
0.065
0.0517
0.0517
0.0383
0.04
0.0267
0.0267
0.0167
0.015
0.0067
0.0067
-0.0033
-0.0033
-0.0167
-0.0167
-0.0283
-0.0267
-0.035
-0.0333
-0.0417
-0.0417
-0.05
-0.05
-0.055
-0.0533
-0.055
-0.0533
-0.0583
-0.0583
-0.0617
-0.0633
-0.0583
-0.0583
-0.0567
-0.0583
-0.0533
-0.0533
-0.05
-0.0517
-0.0483
-0.0483
-0.045
-0.0467
-0.0433
-0.045
-0.0417
-0.0433
-0.045
-0.0433
-0.045
-0.045
-0.0467
-0.045
-0.0383
-0.04
-0.0283
-0.0283
-0.0167
-0.0167
-0.0083
-0.0083
-0.005
-0.0067
-0.01
-0.0117
-0.0133
-0.0133
-0.0183
-0.0167
-0.0217
-0.0217
-0.0233
-0.025
-0.0283
-0.0267
-0.03
-0.03
-0.0317
-0.0333
-0.0267
-0.03
-0.0217
-0.02
-0.0133
-0.015
-0.0167
-0.015
-0.01
-0.01
-0.0083
-0.0083
-0.005
-0.0067
-0.015
-0.015
-0.01
-0.0083
0
0
0.01
0.01
0.025
0.025
0.0467
0.0467
0.0667
0.0667
0.0783
0.0783
0.0867
0.0867
0.0883
0.0867
0.0733
0.0733
0.06
0.0583
0.0533
0.055
0.0517
0.055
0.0617
0.0633
0.06
0.0617
0.05
0.0483
0.03
0.03
0.0083
0.0067
0.0017
0.0033
0.005
0.0067
0.015
0.015
0.025
0.025
0.0233
0.0233
0.0283
0.0283
0.025
0.025
0.0283
0.03
0.04
0.04
0.045
0.0433
0.0483
0.0467
0.05
0.0483
0.04
0.04
0.0333
0.0333
0.0283
0.0283
0.02
0.02
0.0183
0.0183
0.0217
0.0183
0.0167
0.0167
0.025
0.0267
0.03
0.0317
0.0217
0.02
0.015
0.015
0.0083
0.01
0.0017
0
-0.04
-0.0417
-0.08
-0.085
-0.0467
-0.0433
-0.0067
-0.0067
-0.0217
-0.025
-0.015
-0.015
0.0067
0.0067
0.0133
0.0133
0.0067
0.005
-0.0067
-0.0067
-0.01
-0.0117
-0.0167
-0.0167
-0.025
-0.0267
-0.04
-0.04
-0.0483
-0.0483
-0.0517
-0.0517
-0.055
-0.0517
-0.055
-0.055
-0.05
-0.0517
-0.05
-0.05
-0.0517
-0.0517
-0.0467
-0.05
-0.0483
-0.0517
-0.0483
-0.05
-0.055
-0.0533
-0.0567
-0.0567
-0.0533
-0.055
-0.0483
-0.05
-0.0417
-0.0417
-0.05
-0.0483
-0.06
-0.06
-0.0667
-0.065
-0.0633
-0.0633
-0.06
-0.06
-0.065
-0.0617
-0.0667
-0.0667
-0.075
-0.0733
-0.0767
-0.0767
-0.0817
-0.08
-0.065
-0.065
-0.0467
-0.045
-0.005
-0.0033
0.105
0.1417
0
-0.1483
0.015
0.1233
-0.0617
0.1933
-0.0633
-0.0967
-0.2517
-0.265
-0.1833
-0.18
-0.1233
-0.1217
-0.0917
-0.0917
-0.0717
-0.0717
-0.0583
-0.0567
-0.0467
-0.0467
-0.0383
-0.0383
-0.03
-0.03
-0.015
-0.0133
0.01
0.01
0.0467
0.05
0.1117
0.1017
0.16
0.1317
-0.045
-0.0283
0.0317
-0.0033
0.0567
0.0567
0.075
0.0717
0.03
0.0283
-0.0417
-0.045
-0.0967
-0.0983
-0.1383
-0.14
-0.1567
-0.1583
-0.1667
-0.1667
-0.1633
-0.1633
-0.1583
-0.1583
-0.1433
-0.1433
-0.1367
-0.145
-0.1883
-0.1917
-0.255
-0.2533
-0.1867
-0.1817
-0.0733
-0.07
-0.0017
0.0017
-0.005
-0.0067
-0.0367
-0.0383
-0.065
-0.0667
-0.0867
-0.0867
-0.0933
-0.0917
-0.095
-0.0917
-0.0967
-0.0933
-0.0967
-0.095
-0.105
-0.105
-0.11
-0.115
-0.1083
-0.105
-0.1333
-0.1367
-0.1967
-0.19
-0.0967
-0.0917
0.0083
0.0117
0.0283
0.0267
0.0117
0.01
-0.0067
0.1
-0.0067
-0.02
-0.02
-0.025
-0.025
-0.0217
-0.025
-0.02
-0.0217
-0.0133
-0.0133
-0.0083
-0.01
-0.005
-0.0067
-0.005
-0.0067
-0.0133
-0.0133
-0.0183
-0.0167
-0.02
-0.0183
-0.0217
-0.02
-0.025
-0.0233
-0.0283
-0.0267
-0.0217
-0.0217
-0.0183
-0.02
-0.0217
-0.025
-0.0217
-0.0267
-0.0367
-0.0383
-0.0567
-0.0567
-0.065
-0.0667
-0.0617
-0.0617
-0.0517
-0.05
-0.045
-0.045
-0.0367
-0.0367
-0.0333
-0.0333
-0.03
-0.03
-0.0233
-0.0233
-0.02
-0.02
-0.0267
-0.025
-0.0217
-0.0217
-0.0183
-0.0183
-0.0133
-0.0133
-0.01
-0.01
-0.015
-0.0133
-0.0167
-0.015
-0.02
-0.0183
-0.0217
-0.0217
-0.0167
-0.0183
-0.015
-0.0167
-0.02
-0.0183
-0.0267
-0.0283
-0.035
-0.035
-0.04
-0.04
-0.035
-0.0367
-0.0317
-0.0333
-0.03
-0.0283
-0.0267
-0.0267
-0.0317
-0.03
-0.035
-0.035
-0.0317
-0.0317
-0.0283
-0.0267
-0.03
-0.0267
-0.03
-0.03
-0.0333
-0.0333
-0.0383
-0.0383
-0.0417
-0.0433
-0.0383
-0.0367
-0.0283
-0.0283
-0.0167
-0.0167
-0.0083
-0.0083
-0.015
-0.015
-0.0217
-0.02
-0.025
-0.0267
-0.0283
-0.0267
-0.03
-0.0283
-0.03
-0.03
-0.035
-0.035
-0.04
-0.04
-0.0383
-0.04
-0.0333
-0.0333
-0.0367
-0.0367
-0.0317
-0.03
-0.0217
-0.0217
-0.0133
-0.0133
-0.0033
-0.0033
0.005
0.005
0.0017
0
-0.045
-0.0467
-0.09
-0.095
-0.055
-0.05
0.0217
0.0283
0.0217
0.02
0.0033
0.005
0.0033
0.0033
-0.01
-0.01
-0.0133
-0.0133
-0.0183
-0.0183
-0.015
-0.0167
-0.0183
-0.0183
-0.02
-0.02
-0.025
-0.025
-0.0283
-0.0283
-0.0317
-0.0333
-0.0267
-0.0267
-0.02
-0.02
-0.015
-0.0167
-0.0117
-0.0133
-0.01
-0.01
-0.0117
-0.01
-0.0083
-0.0083
-0.0117
-0.0083
0
-0.0017
0.0017
0.0017
-0.0017
0
-0.02
-0.02
-0.0417
-0.0433
-0.0567
-0.0567
-0.0617
-0.0617
-0.0567
-0.0567
-0.0483
-0.0483
-0.0467
-0.0467
-0.0483
-0.0483
-0.045
-0.0467
-0.04
-0.0383
-0.035
-0.035
-0.0317
-0.0333
-0.0317
-0.0333
-0.0267
-0.0267
-0.015
-0.015
-0.01
-0.0083
-0.0117
-0.0083
-0.0167
-0.0167
-0.0283
-0.03
-0.0383
-0.0383
-0.0483
-0.0483
-0.0533
-0.0517
-0.0483
-0.0517
-0.0467
-0.045
-0.0333
-0.0333
-0.0217
-0.0217
-0.015
-0.0183
-0.025
-0.025
-0.0283
-0.0283
-0.0217
-0.02
0.0083
0.01
0.0433
0.045
0.0583
0.0583
0.055
0.0583
0.07
0.07
0.0883
0.0067
0.1933
0.1983
-0.0317
0.235
-0.135
-0.1417
-0.2
-0.215
-0.1517
-0.1483
-0.095
-0.0933
-0.0767
-0.0767
-0.065
-0.065
-0.0567
-0.0567
-0.0483
-0.05
-0.0417
-0.0417
-0.0367
-0.0367
-0.0217
-0.0217
-0.015
-0.0133
-0.015
-0.0133
-0.005
-0.0067
-0.0017
-0.0033
-0.0083
-0.0083
-0.01
-0.0083
-0.0117
-0.0083
-0.0033
-0.0033
0.0067
0.0067
0.0133
0.015
0.005
0.005
-0.0533
-0.0567
-0.145
-0.145
-0.095
-0.09
0.02
0.0233
0.0917
0.0933
0.1033
0.095
0.065
0.065
0.0433
0.0433
0.0317
0.0317
0.0217
0.0217
0.0117
0.0117
0.0133
0.0133
0.025
0.0267
0.07
0.0933
-0.0917
-0.1133
-0.0917
-0.09
-0.045
-0.0433
-0.0217
-0.0217
-0.0133
-0.0133
-0.005
-0.005
0.0033
0.0033
0.0217
0.0233
0.04
0.0417
0.0933
0.0967
0.1817
0.1867
0.2567
0.2583
0.1
0.095
0.1767
0.1767
0.14
0.1633
0.2067
0.2083
0.175
0.1733
0.085
0.0817
-0.0067
-0.0083
-0.075
-0.0767
-0.105
-0.105
-0.115
-0.115
-0.1217
-0.1217
-0.12
-0.1217
-0.1133
-0.1133
-0.0983
-0.0983
-0.08
-0.0783
-0.0633
-0.0633
-0.0483
-0.05
-0.04
-0.04
-0.0317
-0.0333
-0.0283
-0.0283
-0.03
-0.0283
-0.0233
-0.0233
-0.0183
-0.0183
-0.015
-0.0167
-0.0217
-0.02
-0.0267
-0.025
-0.0317
-0.025
-0.0483
-0.0517
-0.12
-0.115
-0.0417
-0.0383
0.05
0.05
0.0583
0.0517
0.02
0.02
0.0033
0.0033
-0.0033
-0.0033
0.0067
0.0083
0.025
0.0267
0.0333
0.0333
0.0417
0.0417
0.045
0.045
0.0283
0.0267
-0.0267
-0.0283
-0.06
-0.0583
0.0083
0.0117
0.0567
0.0583
0.0383
0.0367
0.03
0.03
0.0267
0.0283
0.015
0.015
0.0183
0.0133
0.015
0.0167
0.0133
0.0167
0.0117
0.0133
0.0083
0.0083
0.0067
0.0083
0.0017
0.0033
0
0
-0.0033
0.0017
-0.0017
0
0.0017
0
0.005
0.0033
0.0067
0.0067
0.015
0.0167
0.0233
0.0233
0.0317
0.0333
0.03
0.0317
0.0233
0.025
0.0183
0.0183
0.015
0.015
0.0117
0.0133
0.01
0.01
0.0133
0.01
0.0133
0.0117
0.015
0.01
0.0083
0.01
0.0067
0.0083
0.01
0.0083
0.0067
0.0083
0.01
0.01
0.0133
0.0133
0.015
0.015
0.02
0.02
0.0217
0.0217
0.0183
0.0183
0.02
0.02
0.025
0.0233
0.0267
0.0233
0.0183
0.0183
0.015
0.015
0.0117
0.0133
0.01
0.0133
0.0067
0.0083
0.0033
0.005
0.0117
0.0117
0.0083
0.0083
0.0117
0.0117
0.0083
0.0117
-0.0033
-0.0033
-0.02
-0.0233
-0.02
-0.0217
-0.015
-0.015
-0.0083
-0.0083
-0.0067
-0.0067
-0.0017
-0.0017
0.005
0.005
0.01
0.0117
0.0183
0.0167
0.0217
0.0217
0.025
0.0233
0.025
0.025
0.0283
0.0267
0.0233
0.0233
0.0183
0.02
0.0167
0.0167
0.0117
0.0117
0.0133
0.0117
0.005
0.005
0.0033
0.0017
0
0
-0.0017
-0.0017
-0.0033
-0.005
0
0
0.0017
0.0033
0
0.0033
0.0067
0.0067
0.0117
0.0117
0.02
0.02
0.0233
0.0233
0.0267
0.0267
0.0233
0.0233
0.0217
0.0233
0.02
0.0217
0.025
0.025
0.0283
0.0283
0.0267
0.0267
0.0317
0.03
0.0233
0.0233
0.0183
0.0183
0.0133
0.0133
0.0083
0.01
0.0083
0.01
0.0183
0.0183
0.0433
0.0433
0.0817
0.0983
0.0617
0.0233
0.1483
0.2417
0.04
0.2433
-0.0217
-0.0517
-0.145
-0.1917
-0.145
-0.1417
-0.08
-0.0783
-0.0533
-0.0533
-0.0383
-0.0367
-0.0217
-0.02
-0.0033
-0.0017
0.01
0.0117
0.0217
0.02
0.0283
0.0283
0.0267
0.0267
0.0217
0.0217
0.0083
0.0083
-0.005
-0.005
-0.01
-0.01
-0.015
-0.0167
-0.0233
-0.025
-0.02
-0.02
-0.015
-0.0133
-0.0283
-0.03
-0.0967
-0.1
-0.1433
-0.14
-0.0567
-0.0517
0.0333
0.0383
0.14
0.1633
0.0583
0.0417
-0.035
-0.02
0.02
0.0217
0.05
0.05
0.055
0.0517
0.0467
0.045
0.0367
0.0367
0.015
0.015
-0.005
-0.0067
-0.0167
-0.015
-0.0083
-0.0083
0.0083
0.0083
0.0283
0.03
0.0433
0.0433
0.04
0.0417
0.0483
0.0467
0.05
0.0483
0.045
0.0467
0.0367
0.0367
0.0283
0.0283
0.0233
0.0233
0.0217
0.02
0.025
0.025
0.03
0.0283
0.03
0.03
0.0317
0.03
0.02
0.02
0
0
-0.0067
-0.0067
-0.0033
-0.0017
-0.0017
-0.0017
-0.0033
-0.0017
0
-0.0017
0.0017
-0.0017
-0.0067
-0.0067
0.0033
0.005
0.01
0.01
0.015
0.0117
0.015
0.0133
0.0167
0.015
0.025
0.025
0.0417
0.0433
0.0733
0.075
0.1183
0.1217
0.1733
0.1667
0.2217
0.16
-0.005
0.0367
-0.0017
0.0183
0.0683
0.0683
0.1
0.1
0.0767
0.0733
0.03
0.0283
-0.0083
-0.01
-0.0333
-0.035
-0.05
-0.0517
-0.0633
-0.0633
-0.0683
-0.0683
-0.0717
-0.07
-0.0717
-0.0717
-0.0683
-0.0683
-0.0633
-0.0633
-0.0733
-0.0733
-0.0883
-0.0867
-0.1233
-0.1233
-0.15
-0.1517
-0.1617
-0.1483
-0.03
-0.0233
0.0767
0.0783
0.1067
0.1083
0.0967
0.0967
0.0633
0.0633
0.045
0.0433
0.0217
0.0217
0.015
0.0167
0.0183
0.015
0.01
0.01
-0.0083
-0.01
-0.02
-0.0183
-0.0117
-0.0117
0
0
0.0117
0.0117
0.0183
0.0183
0.02
0.02
0.0167
0.0183
0.0133
0.0133
0.0167
0.015
0.0183
0.0183
0.0167
0.0167
0.0117
0.0117
0.0083
0.0083
0.005
0.0033
0.0067
0.0067
0.01
0.0083
0.0117
0.01
0.0117
0.0133
0.01
0.01
0.0133
0.0133
0.0167
0.0167
0.0217
0.0167
0.02
0.0183
0.0167
0.0167
0.0133
0.0133
0.01
0.0117
0.0083
0.0083
0
0.0017
0
0
-0.0017
0
-0.0017
0
0.0033
0.0033
0.0083
0.0083
0.005
0.0033
0.0017
0.0033
-0.0017
-0.0017
0.0083
0.0083
0.0283
0.03
0.04
0.0417
0.0333
0.0333
0.015
0.015
0.0067
0.0067
0
0
0.0083
0.0083
0.0167
0.0167
0.0217
0.0217
0.0233
0.0233
0.0283
0.025
0.0283
0.0267
0.03
0.03
0.035
0.0333
0.0383
0.0367
0.04
0.0383
0.0417
0.0383
0.0317
